host_time_s,device_time_ms,raw_value,filtered_value,triggered,trial_id,label,phase
0.6453,5937,0,0.0,0,,,
0.6461,5943,0,0.0,0,,,
0.6463,5949,0,0.0,0,,,
0.6464,5955,0,0.0,0,,,
0.6464,5961,0,0.0,0,,,
0.6465,5967,0,0.0,0,,,
0.6465,5973,0,0.0,0,,,
0.6466,5979,0,0.0,0,,,
0.6466,5985,0,0.0,0,,,
0.6467,5991,0,0.0,0,,,
0.6467,5997,0,0.0,0,,,
0.6468,6003,0,0.0,0,,,
0.6469,6009,0,0.0,0,,,
0.647,6015,0,0.0,0,,,
0.6471,6021,0,0.0,0,,,
0.6472,6027,0,0.0,0,,,
0.6473,6033,0,0.0,0,,,
0.6474,6039,0,0.0,0,,,
0.6476,6045,3,0.3,0,,,
0.6486,6051,25,2.77,0,,,
0.6487,6057,30,5.49,0,,,
0.6488,6063,27,7.64,0,,,
0.6489,6069,17,8.58,0,,,
0.6491,6075,143,22.02,0,,,
0.654,6081,263,46.12,0,,,
0.6599,6087,304,71.91,0,,,
0.6659,6093,337,98.42,0,,,
0.6721,6099,405,129.07,0,,,
0.678,6105,478,163.97,0,,,
0.684,6111,432,190.77,0,,,
0.6901,6117,356,207.29,0,,,
0.696,6123,381,224.66,0,,,
0.702,6129,391,241.3,0,,,
0.708,6135,373,254.47,0,,,
0.714,6141,320,261.02,0,,,
0.726,6147,302,265.12,0,,,
0.7262,6153,262,264.81,0,,,
0.7335,6159,245,262.83,0,,,
0.738,6165,320,268.54,0,,,
0.744,6171,446,286.29,0,,,
0.7501,6177,429,300.56,0,,,
0.7765,6183,373,307.8,0,,,
0.7856,6189,368,313.82,0,,,
0.7857,6195,400,322.44,0,,,
0.7858,6201,384,328.6,0,,,
0.7858,6207,352,330.94,0,,,
0.786,6213,323,330.14,0,,,
0.7928,6219,339,331.03,0,,,
0.799,6225,383,336.23,0,,,
0.8061,6231,336,336.2,0,,,
0.8112,6237,294,331.98,0,,,
0.8166,6243,288,327.59,0,,,
0.8221,6249,292,324.03,0,,,
0.828,6255,258,317.42,0,,,
0.8368,6261,221,307.78,0,,,
0.8498,6267,198,296.8,0,,,
0.8505,6273,173,284.42,0,,,
0.8529,6279,175,273.48,0,,,
0.8582,6285,170,263.13,0,,,
0.8649,6291,99,246.72,0,,,
0.87,6297,111,233.15,0,,,
0.8805,6303,78,217.63,0,,,
0.8927,6309,63,202.17,0,,,
0.8932,6315,53,187.25,0,,,
0.8943,6321,46,173.13,0,,,
0.9012,6327,45,160.31,0,,,
0.9063,6333,26,146.88,0,,,
0.912,6339,48,136.99,0,,,
0.9259,6345,48,128.1,0,,,
0.9338,6351,96,124.89,0,,,
0.9344,6357,237,136.1,0,,,
0.9517,6363,384,160.89,0,,,
0.9529,6369,427,187.5,0,,,
0.9538,6375,467,215.45,0,,,
0.9543,6381,428,236.7,0,,,
0.9604,6387,399,252.93,0,,,
0.9663,6393,362,263.84,0,,,
0.9721,6399,451,282.56,0,,,
0.9795,6405,605,314.8,0,,,
0.9849,6411,560,339.32,0,,,
0.9901,6417,491,354.49,0,,,
0.996,6423,433,362.34,0,,,
1.0113,6429,375,363.61,0,,,
1.012,6435,349,362.15,0,,,
1.0142,6441,282,354.13,0,,,
1.0207,6447,330,351.72,0,,,
1.0266,6453,467,363.25,0,,,
1.0322,6459,627,389.62,0,,,
1.038,6465,631,413.76,0,,,
1.044,6471,678,440.18,0,,,
1.0504,6477,720,468.16,0,,,
1.0699,6483,639,485.25,0,,,
1.085,6489,546,491.32,0,,,
1.0855,6495,474,489.59,0,,,
1.0857,6501,415,482.13,0,,,
1.0859,6507,357,469.62,0,,,
1.0866,6513,309,453.56,0,,,
1.0937,6519,267,434.9,0,,,
1.098,6525,230,414.41,0,,,
1.1048,6531,199,392.87,0,,,
1.1186,6537,187,372.28,0,,,
1.1192,6543,187,353.75,0,,,
1.1225,6549,176,335.98,0,,,
1.1311,6555,226,324.98,0,,,
1.1342,6561,337,326.18,0,,,
1.1402,6567,307,324.26,0,,,
1.1463,6573,396,331.44,0,,,
1.152,6579,511,349.39,0,,,
1.1579,6585,628,377.26,0,,,
1.1723,6591,663,405.83,0,,,
1.1733,6597,640,429.25,0,,,
1.1765,6603,589,445.22,0,,,
1.1832,6609,509,451.6,0,,,
1.1883,6615,447,451.14,0,,,
1.1942,6621,386,444.63,0,,,
1.2001,6627,333,433.46,0,,,
1.2322,6633,279,418.02,0,,,
1.2326,6639,256,401.82,0,,,
1.2328,6645,203,381.93,0,,,
1.2349,6651,207,364.44,0,,,
1.2355,6657,208,348.8,0,,,
1.2404,6663,213,335.22,0,,,
1.2435,6669,237,325.39,0,,,
1.2482,6675,201,312.96,0,,,
1.254,6681,173,298.96,0,,,
1.2599,6687,144,283.46,0,,,
1.267,6693,121,267.22,0,,,
1.2817,6699,102,250.7,0,,,
1.2831,6705,93,234.93,0,,,
1.2849,6711,89,220.33,0,,,
1.2913,6717,66,204.9,0,,,
1.296,6723,54,189.81,0,,,
1.302,6729,46,175.43,0,,,
1.3081,6735,39,161.79,0,,,
1.3143,6741,83,153.91,0,,,
1.3247,6747,85,147.02,0,,,
1.3393,6753,81,140.42,0,,,
1.3403,6759,112,137.57,0,,,
1.3411,6765,111,134.92,0,,,
1.3443,6771,109,132.32,0,,,
1.351,6777,97,128.79,0,,,
1.356,6783,89,124.81,0,,,
1.362,6789,80,120.33,0,,,
1.3681,6795,75,115.8,0,,,
1.3739,6801,68,111.02,0,,,
1.382,6807,47,104.62,0,,,
1.3954,6813,58,99.96,0,,,
1.3968,6819,47,94.66,0,,,
1.3983,6825,48,89.99,0,,,
1.4062,6831,48,85.79,0,,,
1.41,6837,51,82.31,0,,,
1.416,6843,43,78.38,0,,,
1.422,6849,44,74.95,0,,,
1.428,6855,35,70.95,0,,,
1.434,6861,39,67.76,0,,,
1.4404,6867,41,65.08,0,,,
1.4545,6873,37,62.27,0,,,
1.4558,6879,34,59.44,0,,,
1.4581,6885,34,56.9,0,,,
1.4639,6891,37,54.91,0,,,
1.4879,6897,29,52.32,0,,,
1.4883,6903,22,49.29,0,,,
1.4885,6909,16,45.96,0,,,
1.4887,6915,21,43.46,0,,,
1.4973,6921,14,40.52,0,,,
1.4999,6927,14,37.86,0,,,
1.5112,6933,13,35.38,0,,,
1.5118,6939,7,32.54,0,,,
1.5246,6945,4,29.69,0,,,
1.5256,6951,7,27.42,0,,,
1.5304,6957,5,25.18,0,,,
1.5362,6963,2,22.86,0,,,
1.542,6969,0,20.57,0,,,
1.5479,6975,0,18.52,0,,,
1.5539,6981,0,16.66,0,,,
1.5599,6987,0,15.0,0,,,
1.5658,6993,0,13.5,0,,,
1.5737,6999,6,12.75,0,,,
1.5876,7005,0,11.47,0,,,
1.5886,7011,0,10.33,0,,,
1.5903,7017,0,9.29,0,,,
1.5964,7023,0,8.36,0,,,
1.6023,7029,0,7.53,0,,,
1.6077,7035,1,6.87,0,,,
1.6136,7041,0,6.19,0,,,
1.6225,7047,0,5.57,0,,,
1.6317,7053,0,5.01,0,,,
1.6328,7059,0,4.51,0,,,
1.64,7065,0,4.06,0,,,
1.6546,7071,0,3.65,0,,,
1.6557,7077,0,3.29,0,,,
1.6562,7083,2,3.16,0,,,
1.6627,7089,0,2.84,0,,,
1.6686,7095,0,2.56,0,,,
1.6737,7101,0,2.3,0,,,
1.6798,7107,0,2.07,0,,,
1.6857,7113,0,1.87,0,,,
1.6917,7119,0,1.68,0,,,
1.6976,7125,0,1.51,0,,,
1.7083,7131,0,1.36,0,,,
1.7224,7137,0,1.22,0,,,
1.7239,7143,0,1.1,0,,,
1.7249,7149,0,0.99,0,,,
1.7278,7155,0,0.89,0,,,
1.7347,7161,0,0.8,0,,,
1.74,7167,16,2.32,0,,,
1.7461,7173,16,3.69,0,,,
1.7517,7179,0,3.32,0,,,
1.7665,7185,0,2.99,0,,,
1.7914,7191,0,2.69,0,,,
1.7925,7197,0,2.42,0,,,
1.7934,7203,0,2.18,0,,,
1.7957,7209,0,1.96,0,,,
1.7959,7215,0,1.77,0,,,
1.7977,7221,0,1.59,0,,,
1.8009,7227,0,1.43,0,,,
1.8069,7233,0,1.29,0,,,
1.8118,7239,0,1.16,0,,,
1.8177,7245,0,1.04,0,,,
1.8237,7251,0,0.94,0,,,
1.8298,7257,0,0.84,0,,,
1.8357,7263,0,0.76,0,,,
1.8416,7269,0,0.68,0,,,
1.8498,7275,0,0.62,0,,,
1.8645,7281,0,0.55,0,,,
1.8684,7287,0,0.5,0,,,
1.8687,7293,0,0.45,0,,,
1.8729,7299,0,0.4,0,,,
1.8784,7305,0,0.36,0,,,
1.8839,7311,22,2.53,0,,,
1.8898,7317,0,2.27,0,,,
1.9046,7323,0,2.05,0,,,
1.9149,7329,0,1.84,0,,,
1.9151,7335,0,1.66,0,,,
1.9152,7341,0,1.49,0,,,
1.9234,7347,0,1.34,0,,,
1.9378,7353,0,1.21,0,,,
1.9387,7359,0,1.09,0,,,
1.9389,7365,14,2.38,0,,,
1.9443,7371,6,2.74,0,,,
1.9506,7377,0,2.47,0,,,
1.9557,7383,2,2.42,0,,,
1.9617,7389,0,2.18,0,,,
1.9676,7395,0,1.96,0,,,
1.9737,7401,0,1.76,0,,,
1.9797,7407,0,1.59,0,,,
1.9856,7413,0,1.43,0,,,
1.9916,7419,0,1.29,0,,,
1.9983,7425,0,1.16,0,,,
2.013,7431,0,1.04,0,,,
2.0141,7437,0,0.94,0,,,
2.0161,7443,0,0.84,0,,,
2.0221,7449,0,0.76,0,,,
2.0279,7455,0,0.68,0,,,
2.0339,7461,0,0.62,0,,,
2.0498,7467,0,0.55,0,,,
2.0588,7473,0,0.5,0,,,
2.0642,7479,0,0.45,0,,,
2.0645,7485,0,0.4,0,,,
2.0647,7491,0,0.36,0,,,
2.07,7497,0,0.33,0,,,
2.0762,7503,0,0.29,0,,,
2.0911,7509,0,0.26,0,,,
2.0921,7515,0,0.24,0,,,
2.0957,7521,0,0.21,0,,,
2.1004,7527,0,0.19,0,,,
2.1063,7533,0,0.17,0,,,
2.1116,7539,0,0.16,0,,,
2.1176,7545,0,0.14,0,,,
2.1238,7551,16,1.73,0,,,
2.1298,7557,0,1.55,0,,,
2.1357,7563,0,1.4,0,,,
2.1416,7569,0,1.26,0,,,
2.1477,7575,0,1.13,0,,,
2.1561,7581,0,1.02,0,,,
2.1704,7587,0,0.92,0,,,
2.1714,7593,0,0.83,0,,,
2.1719,7599,0,0.74,0,,,
2.1779,7605,0,0.67,0,,,
2.1847,7611,0,0.6,0,,,
2.1899,7617,0,0.54,0,,,
2.2007,7623,0,0.49,0,,,
2.2103,7629,0,0.44,0,,,
2.2133,7635,0,0.4,0,,,
2.2137,7641,0,0.36,0,,,
2.2213,7647,0,0.32,0,,,
2.2257,7653,0,0.29,0,,,
2.2316,7659,0,0.26,0,,,
2.2387,7665,0,0.23,0,,,
2.254,7671,0,0.21,0,,,
2.2549,7677,0,0.19,0,,,
2.257,7683,0,0.17,0,,,
2.2617,7689,0,0.15,0,,,
2.268,7695,0,0.14,0,,,
2.2736,7701,0,0.12,0,,,
2.2796,7707,0,0.11,0,,,
2.2856,7713,0,0.1,0,,,
2.2917,7719,16,1.69,0,,,
2.2977,7725,0,1.52,0,,,
2.304,7731,0,1.37,0,,,
2.3096,7737,0,1.23,0,,,
2.3157,7743,0,1.11,0,,,
2.3216,7749,0,1.0,0,,,
2.3498,7755,0,0.9,0,,,
2.3504,7761,0,0.81,0,,,
2.3506,7767,0,0.73,0,,,
2.3526,7773,0,0.65,0,,,
2.3528,7779,0,0.59,0,,,
2.359,7785,0,0.53,0,,,
2.3637,7791,0,0.48,0,,,
2.3696,7797,0,0.43,0,,,
2.3757,7803,0,0.39,0,,,
2.3816,7809,0,0.35,0,,,
2.3879,7815,0,0.31,0,,,
2.3936,7821,0,0.28,0,,,
2.3996,7827,0,0.25,0,,,
2.4082,7833,64,6.63,0,,,
2.4229,7839,106,16.57,0,,,
2.4239,7845,150,29.91,0,,,
2.425,7851,152,42.12,0,,,
2.431,7857,176,55.51,0,,,
2.4366,7863,110,60.96,0,,,
2.4421,7869,169,71.76,0,,,
2.4479,7875,181,82.68,0,,,
2.4539,7881,254,99.82,0,,,
2.4601,7887,258,115.63,0,,,
2.4661,7893,304,134.47,0,,,
2.4772,7899,305,151.52,0,,,
2.4844,7905,299,166.27,0,,,
2.4924,7911,295,179.14,0,,,
2.4928,7917,242,185.43,0,,,
2.5077,7923,208,187.69,0,,,
2.5089,7929,181,187.02,0,,,
2.5101,7935,151,183.42,0,,,
2.5146,7941,136,178.67,0,,,
2.5214,7947,112,172.01,0,,,
2.5262,7953,100,164.81,0,,,
2.5319,7959,79,156.23,0,,,
2.5382,7965,67,147.3,0,,,
2.5443,7971,62,138.77,0,,,
2.55,7977,49,129.8,0,,,
2.5561,7983,48,121.62,0,,,
2.5619,7989,45,113.95,0,,,
2.5679,7995,37,106.26,0,,,
2.574,8001,55,101.13,0,,,
2.5817,8007,46,95.62,0,,,
2.5955,8013,42,90.26,0,,,
2.5965,8019,36,84.83,0,,,
2.5982,8025,30,79.35,0,,,
2.6039,8031,22,73.61,0,,,
2.6098,8037,18,68.05,0,,,
2.6161,8043,23,63.55,0,,,
2.6219,8049,13,58.49,0,,,
2.628,8055,10,53.64,0,,,
2.6339,8061,9,49.18,0,,,
2.6397,8067,9,45.16,0,,,
2.6474,8073,0,40.64,0,,,
2.6686,8079,3,36.88,0,,,
2.6688,8085,14,34.59,0,,,
2.6689,8091,16,32.73,0,,,
2.6843,8097,15,30.96,0,,,
2.6853,8103,11,28.96,0,,,
2.686,8109,16,27.67,0,,,
2.6887,8115,15,26.4,0,,,
2.6953,8121,4,24.16,0,,,
2.6998,8127,6,22.34,0,,,
2.7057,8133,5,20.61,0,,,
2.7118,8139,0,18.55,0,,,
2.7177,8145,0,16.69,0,,,
2.7239,8151,0,15.02,0,,,
2.7298,8157,0,13.52,0,,,
2.7357,8163,0,12.17,0,,,
2.7417,8169,0,10.95,0,,,
2.7477,8175,0,9.86,0,,,
2.7536,8181,0,8.87,0,,,
2.7613,8187,0,7.98,0,,,
2.7735,8193,0,7.19,0,,,
2.7744,8199,0,6.47,0,,,
2.7781,8205,0,5.82,0,,,
2.7841,8211,11,6.34,0,,,
2.7897,8217,0,5.7,0,,,
2.7958,8223,0,5.13,0,,,
2.8016,8229,0,4.62,0,,,
2.8279,8235,0,4.16,0,,,
2.8326,8241,0,3.74,0,,,
2.8329,8247,0,3.37,0,,,
2.833,8253,0,3.03,0,,,
2.8333,8259,0,2.73,0,,,
2.8393,8265,0,2.46,0,,,
2.8488,8271,0,2.21,0,,,
2.8496,8277,0,1.99,0,,,
2.8631,8283,0,1.79,0,,,
2.8642,8289,0,1.61,0,,,
2.8676,8295,0,1.45,0,,,
2.8743,8301,0,1.31,0,,,
2.8798,8307,0,1.17,0,,,
2.8857,8313,0,1.06,0,,,
2.8917,8319,0,0.95,0,,,
2.8978,8325,0,0.86,0,,,
2.9036,8331,0,0.77,0,,,
2.9095,8337,0,0.69,0,,,
2.9157,8343,0,0.62,0,,,
2.9216,8349,0,0.56,0,,,
2.9276,8355,0,0.51,0,,,
2.9336,8361,0,0.46,0,,,
2.9409,8367,0,0.41,0,,,
2.9549,8373,0,0.37,0,,,
2.956,8379,0,0.33,0,,,
2.958,8385,0,0.3,0,,,
2.9642,8391,0,0.27,0,,,
2.9697,8397,0,0.24,0,,,
2.9904,8403,0,0.22,0,,,
2.9941,8409,0,0.2,0,,,
2.9948,8415,0,0.18,0,,,
2.9954,8421,0,0.16,0,,,
3.002,8427,0,0.14,0,,,
3.0057,8433,0,0.13,0,,,
3.0118,8439,0,0.12,0,,,
3.0176,8445,0,0.1,0,,,
3.0237,8451,0,0.09,0,,,
3.0297,8457,0,0.08,0,,,
3.0373,8463,0,0.08,0,,,
3.0509,8469,0,0.07,0,,,
3.0515,8475,0,0.06,0,,,
3.0541,8481,0,0.06,0,,,
3.0609,8487,0,0.05,0,,,
3.0657,8493,0,0.04,0,,,
3.0717,8499,0,0.04,0,,,
3.078,8505,0,0.04,0,,,
3.0835,8511,0,0.03,0,,,
3.0897,8517,0,0.03,0,,,
3.0957,8523,0,0.03,0,,,
3.1016,8529,0,0.02,0,,,
3.1076,8535,0,0.02,0,,,
3.1137,8541,0,0.02,0,,,
3.1197,8547,0,0.02,0,,,
3.1533,8553,0,0.02,0,,,
3.1535,8559,0,0.01,0,,,
3.1538,8565,0,0.01,0,,,
3.1557,8571,0,0.01,0,,,
3.1559,8577,0,0.01,0,,,
3.1564,8583,0,0.01,0,,,
3.1629,8589,0,0.01,0,,,
3.1677,8595,0,0.01,0,,,
3.1736,8601,0,0.01,0,,,
3.1798,8607,0,0.01,0,,,
3.1857,8613,0,0.01,0,,,
3.1917,8619,0,0.0,0,,,
3.1976,8625,0,0.0,0,,,
3.2035,8631,0,0.0,0,,,
3.2097,8637,0,0.0,0,,,
3.2158,8643,0,0.0,0,,,
3.2215,8649,0,0.0,0,,,
3.2297,8655,0,0.0,0,,,
3.2439,8661,0,0.0,0,,,
3.2452,8667,0,0.0,0,,,
3.2478,8673,0,0.0,0,,,
3.2527,8679,0,0.0,0,,,
3.2584,8685,0,0.0,0,,,
3.2637,8691,0,0.0,0,,,
3.2698,8697,0,0.0,0,,,
3.2758,8703,0,0.0,0,,,
3.2817,8709,0,0.0,0,,,
3.2878,8715,0,0.0,0,,,
3.2937,8721,0,0.0,0,,,
3.3134,8727,0,0.0,0,,,
3.318,8733,0,0.0,0,,,
3.32,8739,0,0.0,0,,,
3.3269,8745,0,0.0,0,,,
3.3275,8751,0,0.0,0,,,
3.3418,8757,0,0.0,0,,,
3.3427,8763,0,0.0,0,,,
3.3442,8769,0,0.0,0,,,
3.3488,8775,0,0.0,0,,,
3.3551,8781,0,0.0,0,,,
3.3597,8787,16,1.6,0,,,
3.3656,8793,0,1.44,0,,,
3.3716,8799,0,1.3,0,,,
3.3778,8805,0,1.17,0,,,
3.3837,8811,0,1.05,0,,,
3.3895,8817,0,0.94,0,,,
3.3957,8823,0,0.85,0,,,
3.4016,8829,0,0.77,0,,,
3.4077,8835,0,0.69,0,,,
3.4136,8841,0,0.62,0,,,
3.4197,8847,0,0.56,0,,,
3.4257,8853,0,0.5,0,,,
3.4445,8859,0,0.45,0,,,
3.4454,8865,0,0.41,0,,,
3.446,8871,0,0.37,0,,,
3.4499,8877,0,0.33,0,,,
3.4563,8883,0,0.3,0,,,
3.4619,8889,0,0.27,0,,,
3.4677,8895,0,0.24,0,,,
3.488,8901,0,0.22,0,,,
3.4921,8907,0,0.19,0,,,
3.4923,8913,0,0.18,0,,,
3.4926,8919,0,0.16,0,,,
3.4993,8925,0,0.14,0,,,
3.5038,8931,0,0.13,0,,,
3.5097,8937,0,0.11,0,,,
3.5157,8943,0,0.1,0,,,
3.5219,8949,17,1.79,0,,,
3.5276,8955,0,1.61,0,,,
3.5382,8961,0,1.45,0,,,
3.5586,8967,0,1.31,0,,,
3.5596,8973,0,1.18,0,,,
3.5608,8979,0,1.06,0,,,
3.5628,8985,0,0.95,0,,,
3.5682,8991,0,0.86,0,,,
3.5699,8997,0,0.77,0,,,
3.5756,9003,0,0.69,0,,,
3.5816,9009,0,0.63,0,,,
3.5876,9015,0,0.56,0,,,
3.5938,9021,0,0.51,0,,,
3.5996,9027,0,0.46,0,,,
3.6057,9033,0,0.41,0,,,
3.6116,9039,0,0.37,0,,,
3.6177,9045,0,0.33,0,,,
3.6236,9051,0,0.3,0,,,
3.6295,9057,0,0.27,0,,,
3.6356,9063,0,0.24,0,,,
3.6455,9069,0,0.22,0,,,
3.6737,9075,0,0.2,0,,,
3.6756,9081,0,0.18,0,,,
3.676,9087,0,0.16,0,,,
3.6763,9093,0,0.14,0,,,
3.6765,9099,0,0.13,0,,,
3.6777,9105,0,0.12,0,,,
3.6844,9111,0,0.1,0,,,
3.6896,9117,0,0.09,0,,,
3.6958,9123,15,1.58,0,,,
3.7016,9129,3,1.73,0,,,
3.7076,9135,0,1.55,0,,,
3.7137,9141,0,1.4,0,,,
3.72,9147,0,1.26,0,,,
3.7256,9153,0,1.13,0,,,
3.7316,9159,0,1.02,0,,,
3.7377,9165,0,0.92,0,,,
3.7437,9171,0,0.83,0,,,
3.7496,9177,0,0.74,0,,,
3.7563,9183,0,0.67,0,,,
3.7707,9189,0,0.6,0,,,
3.7716,9195,0,0.54,0,,,
3.7744,9201,0,0.49,0,,,
3.7803,9207,0,0.44,0,,,
3.7859,9213,0,0.39,0,,,
3.7915,9219,0,0.36,0,,,
3.8028,9225,0,0.32,0,,,
3.811,9231,0,0.29,0,,,
3.8197,9237,0,0.26,0,,,
3.82,9243,0,0.23,0,,,
3.8217,9249,0,0.21,0,,,
3.8292,9255,0,0.19,0,,,
3.8337,9261,0,0.17,0,,,
3.8397,9267,0,0.15,0,,,
3.8456,9273,0,0.14,0,,,
3.8517,9279,0,0.12,0,,,
3.8577,9285,0,0.11,0,,,
3.8698,9291,0,0.1,0,,,
3.87,9297,0,0.09,0,,,
3.8862,9303,0,0.08,0,,,
3.8889,9309,0,0.07,0,,,
3.8911,9315,0,0.07,0,,,
3.8951,9321,0,0.06,0,,,
3.9036,9327,0,0.05,0,,,
3.9064,9333,0,0.05,0,,,
3.9118,9339,6,0.64,0,,,
3.9187,9345,16,2.18,0,,,
3.924,9351,16,3.56,0,,,
3.9302,9357,16,4.8,0,,,
3.9375,9363,16,5.92,0,,,
3.9424,9369,6,5.93,0,,,
3.9481,9375,3,5.64,0,,,
3.954,9381,2,5.27,0,,,
3.96,9387,0,4.75,0,,,
3.9658,9393,0,4.27,0,,,
3.9719,9399,0,3.85,0,,,
3.9779,9405,0,3.46,0,,,
3.9839,9411,0,3.11,0,,,
3.9965,9417,0,2.8,0,,,
3.9968,9423,0,2.52,0,,,
4.0146,9429,0,2.27,0,,,
4.0255,9435,0,2.04,0,,,
4.0261,9441,0,1.84,0,,,
4.0279,9447,0,1.66,0,,,
4.0284,9453,0,1.49,0,,,
4.0316,9459,0,1.34,0,,,
4.0376,9465,0,1.21,0,,,
4.0436,9471,0,1.09,0,,,
4.0496,9477,0,0.98,0,,,
4.0556,9483,0,0.88,0,,,
4.0617,9489,0,0.79,0,,,
4.0677,9495,0,0.71,0,,,
4.0735,9501,0,0.64,0,,,
4.0796,9507,0,0.58,0,,,
4.0856,9513,0,0.52,0,,,
4.0916,9519,0,0.47,0,,,
4.0976,9525,0,0.42,0,,,
4.1035,9531,0,0.38,0,,,
4.115,9537,0,0.34,0,,,
4.1156,9543,0,0.31,0,,,
4.1303,9549,0,0.28,0,,,
4.1309,9555,0,0.25,0,,,
4.1345,9561,0,0.22,0,,,
4.1411,9567,0,0.2,0,,,
4.1456,9573,0,0.18,0,,,
4.1703,9579,0,0.16,0,,,
4.1719,9585,0,0.15,0,,,
4.1722,9591,0,0.13,0,,,
4.1728,9597,0,0.12,0,,,
4.1762,9603,0,0.11,0,,,
4.182,9609,0,0.1,0,,,
4.1876,9615,0,0.09,0,,,
4.1936,9621,0,0.08,0,,,
4.1996,9627,0,0.07,0,,,
4.2056,9633,0,0.06,0,,,
4.2116,9639,0,0.06,0,,,
4.2175,9645,0,0.05,0,,,
4.2238,9651,0,0.05,0,,,
4.2362,9657,0,0.04,0,,,
4.2364,9663,0,0.04,0,,,
4.2509,9669,0,0.03,0,,,
4.2519,9675,0,0.03,0,,,
4.2538,9681,0,0.03,0,,,
4.2597,9687,0,0.02,0,,,
4.2664,9693,0,0.02,0,,,
4.2718,9699,0,0.02,0,,,
4.2776,9705,0,0.02,0,,,
4.2836,9711,0,0.02,0,,,
4.298,9717,0,0.01,0,,,
4.3086,9723,0,0.01,0,,,
4.3094,9729,0,0.01,0,,,
4.31,9735,0,0.01,0,,,
4.3136,9741,0,0.01,0,,,
4.3202,9747,0,0.01,0,,,
4.3256,9753,0,0.01,0,,,
4.3316,9759,0,0.01,0,,,
4.3377,9765,0,0.01,0,,,
4.3437,9771,0,0.01,0,,,
4.3496,9777,0,0.01,0,,,
4.3571,9783,0,0.0,0,,,
4.3738,9789,0,0.0,0,1,0,active
4.3751,9795,0,0.0,0,1,0,active
4.3761,9801,0,0.0,0,1,0,active
4.3808,9807,0,0.0,0,1,0,active
4.3859,9813,0,0.0,0,1,0,active
4.3916,9819,0,0.0,0,1,0,active
4.3978,9825,0,0.0,0,1,0,active
4.4036,9831,2,0.2,0,1,0,active
4.4096,9837,0,0.18,0,1,0,active
4.4156,9843,0,0.16,0,1,0,active
4.4216,9849,0,0.15,0,1,0,active
4.4278,9855,0,0.13,0,1,0,active
4.4336,9861,0,0.12,0,1,0,active
4.4395,9867,0,0.11,0,1,0,active
4.4535,9873,0,0.1,0,1,0,active
4.4581,9879,0,0.09,0,1,0,active
4.4655,9885,0,0.08,0,1,0,active
4.4663,9891,0,0.07,0,1,0,active
4.473,9897,0,0.06,0,1,0,active
4.4757,9903,0,0.06,0,1,0,active
4.4841,9909,0,0.05,0,1,0,active
4.5,9915,0,0.05,0,1,0,active
4.501,9921,0,0.04,0,1,0,active
4.5019,9927,0,0.04,0,1,0,active
4.506,9933,0,0.03,0,1,0,active
4.5116,9939,0,0.03,0,1,0,active
4.5177,9945,0,0.03,0,1,0,active
4.5238,9951,0,0.02,0,1,0,active
4.5296,9957,0,0.02,0,1,0,active
4.5356,9963,0,0.02,0,1,0,active
4.5417,9969,0,0.02,0,1,0,active
4.5477,9975,0,0.02,0,1,0,active
4.5535,9981,0,0.01,0,1,0,active
4.5597,9987,0,0.01,0,1,0,active
4.5656,9993,0,0.01,0,1,0,active
4.5717,9999,0,0.01,0,1,0,active
4.5777,10005,0,0.01,0,1,0,active
4.5836,10011,0,0.01,0,1,0,active
4.5947,10017,0,0.01,0,1,0,active
4.596,10023,0,0.01,0,1,0,active
4.6056,10029,0,0.01,0,1,0,active
4.6217,10035,0,0.01,0,1,0,active
4.6231,10041,0,0.01,0,1,0,active
4.624,10047,0,0.0,0,1,0,active
4.6267,10053,0,0.0,0,1,0,active
4.6333,10059,0,0.0,0,1,0,active
4.6377,10065,0,0.0,0,1,0,active
4.6439,10071,0,0.0,0,1,0,active
4.6498,10077,0,0.0,0,1,0,active
4.6557,10083,0,0.0,0,1,0,active
4.6618,10089,0,0.0,0,1,0,active
4.6676,10095,0,0.0,0,1,0,active
4.6738,10101,0,0.0,0,1,0,active
4.6798,10107,0,0.0,0,1,0,active
4.6856,10113,0,0.0,0,1,0,active
4.6918,10119,0,0.0,0,1,0,active
4.6978,10125,0,0.0,0,1,0,active
4.7037,10131,0,0.0,0,1,0,active
4.7098,10137,0,0.0,0,1,0,active
4.7156,10143,0,0.0,0,1,0,active
4.7217,10149,0,0.0,0,1,0,active
4.7515,10155,0,0.0,0,1,0,active
4.7532,10161,0,0.0,0,1,0,active
4.7535,10167,0,0.0,0,1,0,active
4.7552,10173,0,0.0,0,1,0,active
4.7616,10179,0,0.0,0,1,0,active
4.7634,10185,0,0.0,0,1,0,active
4.764,10191,0,0.0,0,1,0,active
4.7697,10197,0,0.0,0,1,0,active
4.7759,10203,0,0.0,0,1,0,active
4.7818,10209,0,0.0,0,1,0,active
4.7877,10215,3,0.3,0,1,0,active
4.7938,10221,0,0.27,0,1,0,active
4.7998,10227,5,0.74,0,1,0,active
4.8057,10233,0,0.67,0,1,0,active
4.8116,10239,0,0.6,0,1,0,active
4.8177,10245,0,0.54,0,1,0,active
4.8236,10251,0,0.49,0,1,0,active
4.8297,10257,0,0.44,0,1,0,active
4.8365,10263,0,0.39,0,1,0,active
4.8418,10269,0,0.36,0,1,0,active
4.8477,10275,0,0.32,0,1,0,active
4.8536,10281,0,0.29,0,1,0,active
4.8604,10287,0,0.26,0,1,0,active
4.8735,10293,0,0.23,0,1,0,active
4.8752,10299,0,0.21,0,1,0,active
4.8782,10305,0,0.19,0,1,0,active
4.8964,10311,0,0.17,0,1,0,active
4.9029,10317,0,0.15,0,1,0,active
4.9044,10323,0,0.14,0,1,0,active
4.9047,10329,0,0.12,0,1,0,active
4.9078,10335,0,0.11,0,1,0,active
4.9152,10341,0,0.1,0,1,0,active
4.9197,10347,0,0.09,0,1,0,active
4.9258,10353,0,0.08,0,1,0,active
4.9324,10359,0,0.07,0,1,0,active
4.9377,10365,0,0.07,0,1,0,active
4.9437,10371,0,0.06,0,1,0,active
4.9498,10377,0,0.05,0,1,0,active
4.9556,10383,0,0.05,0,1,0,active
4.9617,10389,0,0.04,0,1,0,active
4.9676,10395,0,0.04,0,1,0,active
4.9736,10401,0,0.04,0,1,0,active
4.9798,10407,0,0.03,0,1,0,active
4.991,10413,0,0.03,0,1,0,active
4.9915,10419,0,0.03,0,1,0,active
5.0048,10425,0,0.02,0,1,0,active
5.0067,10431,0,0.02,0,1,0,active
5.0111,10437,0,0.02,0,1,0,active
5.0174,10443,0,0.02,0,1,0,active
5.0377,10449,0,0.02,0,1,0,active
5.0445,10455,0,0.01,0,1,0,active
5.0451,10461,0,0.01,0,1,0,active
5.0453,10467,0,0.01,0,1,0,active
5.0459,10473,0,0.01,0,1,0,active
5.0533,10479,0,0.01,0,1,0,active
5.0577,10485,0,0.01,0,1,0,active
5.0638,10491,0,0.01,0,1,0,active
5.07,10497,0,0.01,0,1,0,active
5.0757,10503,0,0.01,0,1,0,active
5.0817,10509,0,0.01,0,1,0,active
5.0876,10515,0,0.0,0,1,0,active
5.0937,10521,0,0.0,0,1,0,active
5.0998,10527,0,0.0,0,1,0,active
5.1057,10533,37,3.7,0,1,0,active
5.1116,10539,0,3.33,0,1,0,active
5.122,10545,5,3.5,0,1,0,active
5.135,10551,0,3.15,0,1,0,active
5.1366,10557,0,2.83,0,1,0,active
5.1378,10563,0,2.55,0,1,0,active
5.1418,10569,0,2.3,0,1,0,active
5.1477,10575,0,2.07,0,1,0,active
5.1536,10581,0,1.86,0,1,0,active
5.1596,10587,0,1.67,0,1,0,active
5.1658,10593,0,1.51,0,1,0,active
5.1716,10599,0,1.36,0,1,0,active
5.1967,10605,0,1.22,0,1,0,active
5.1987,10611,0,1.1,0,1,0,active
5.1992,10617,0,0.99,0,1,0,active
5.1994,10623,0,0.89,0,1,0,active
5.2019,10629,0,0.8,0,1,0,active
5.209,10635,0,0.72,0,1,0,active
5.2137,10641,0,0.65,0,1,0,active
5.2197,10647,0,0.58,0,1,0,active
5.2257,10653,0,0.53,0,1,0,active
5.2317,10659,0,0.47,0,1,0,active
5.2376,10665,0,0.43,0,1,0,active
5.2435,10671,0,0.38,0,1,0,active
5.2524,10677,0,0.34,0,1,0,active
5.2661,10683,0,0.31,0,1,0,active
5.268,10689,0,0.28,0,1,0,active
5.2682,10695,0,0.25,0,1,0,active
5.2742,10701,0,0.23,0,1,0,active
5.2797,10707,0,0.2,0,1,0,active
5.2857,10713,0,0.18,0,1,0,active
5.2917,10719,0,0.16,0,1,0,active
5.2976,10725,0,0.15,0,1,0,active
5.3036,10731,0,0.13,0,1,0,active
5.3097,10737,0,0.12,0,1,0,active
5.3158,10743,0,0.11,0,1,0,active
5.3218,10749,0,0.1,0,1,0,active
5.3277,10755,0,0.09,0,1,0,active
5.3459,10761,0,0.08,0,1,0,active
5.3523,10767,0,0.07,0,1,0,active
5.3529,10773,0,0.06,0,1,0,active
5.3532,10779,0,0.06,0,1,0,active
5.3599,10785,0,0.05,0,1,0,active
5.3637,10791,0,0.05,0,1,0,active
5.3696,10797,0,0.04,0,1,0,active
5.3756,10803,0,0.04,0,1,0,active
5.3829,10809,0,0.03,0,1,0,active
5.3976,10815,0,0.03,0,1,0,active
5.4,10821,0,0.03,0,1,0,active
5.4002,10827,0,0.02,0,1,0,active
5.407,10833,0,0.02,0,1,0,active
5.4116,10839,0,0.02,0,1,0,active
5.4178,10845,0,0.02,0,1,0,active
5.4236,10851,0,0.02,0,1,0,active
5.4299,10857,0,0.01,0,1,0,active
5.4356,10863,0,0.01,0,1,0,active
5.4417,10869,0,0.01,0,1,0,active
5.4477,10875,0,0.01,0,1,0,active
5.4537,10881,0,0.01,0,1,0,active
5.4598,10887,0,0.01,0,1,0,active
5.4659,10893,0,0.01,0,1,0,active
5.4718,10899,0,0.01,0,1,0,active
5.4776,10905,0,0.01,0,1,0,active
5.4837,10911,0,0.01,0,1,0,active
5.4897,10917,0,0.01,0,1,0,active
5.4956,10923,0,0.0,0,1,0,active
5.5035,10929,0,0.0,0,1,0,active
5.5128,10935,0,0.0,0,1,0,active
5.5267,10941,0,0.0,0,1,0,active
5.5344,10947,0,0.0,0,1,0,active
5.5368,10953,0,0.0,0,1,0,active
5.5371,10959,0,0.0,0,1,0,active
5.539,10965,0,0.0,0,1,0,active
5.5436,10971,0,0.0,0,1,0,active
5.5498,10977,0,0.0,0,1,0,active
5.5557,10983,0,0.0,0,1,0,active
5.562,10989,0,0.0,0,1,0,active
5.5678,10995,0,0.0,0,1,0,active
5.5738,11001,0,0.0,0,1,0,active
5.5798,11007,0,0.0,0,1,0,active
5.5856,11013,0,0.0,0,1,0,active
5.5916,11019,0,0.0,0,1,0,active
5.5977,11025,0,0.0,0,1,0,active
5.6036,11031,0,0.0,0,1,0,active
5.6097,11037,0,0.0,0,1,0,active
5.6156,11043,0,0.0,0,1,0,active
5.6216,11049,0,0.0,0,1,0,active
5.6277,11055,0,0.0,0,1,0,active
5.6338,11061,0,0.0,0,1,0,active
5.6397,11067,0,0.0,0,1,0,active
5.6525,11073,0,0.0,0,1,0,active
5.6528,11079,0,0.0,0,1,0,active
5.6768,11085,0,0.0,0,1,0,active
5.6772,11091,0,0.0,0,1,0,active
5.6774,11097,0,0.0,0,1,0,active
5.6776,11103,0,0.0,0,1,0,active
5.6828,11109,0,0.0,0,1,0,active
5.6877,11115,0,0.0,0,1,0,active
5.6937,11121,0,0.0,0,1,0,active
5.6997,11127,0,0.0,0,1,0,active
5.7056,11133,0,0.0,0,1,0,active
5.7116,11139,0,0.0,0,1,0,active
5.7176,11145,0,0.0,0,1,0,active
5.7237,11151,0,0.0,0,1,0,active
5.7298,11157,0,0.0,0,1,0,active
5.7356,11163,0,0.0,0,1,0,active
5.7416,11169,0,0.0,0,1,0,active
5.7486,11175,0,0.0,0,1,0,active
5.7537,11181,0,0.0,0,1,0,active
5.7597,11187,0,0.0,0,1,0,active
5.7656,11193,0,0.0,0,1,0,active
5.7716,11199,0,0.0,0,1,0,active
5.7778,11205,0,0.0,0,1,0,active
5.7835,11211,0,0.0,0,1,0,active
5.792,11217,0,0.0,0,1,0,active
5.8217,11223,0,0.0,0,1,0,active
5.822,11229,0,0.0,0,1,0,active
5.8223,11235,0,0.0,0,1,0,active
5.8225,11241,0,0.0,0,1,0,active
5.823,11247,0,0.0,0,1,0,active
5.8258,11253,0,0.0,0,1,0,active
5.8324,11259,0,0.0,0,1,0,active
5.8377,11265,0,0.0,0,1,0,active
5.8436,11271,0,0.0,0,1,0,active
5.8496,11277,0,0.0,0,1,0,active
5.8558,11283,0,0.0,0,1,0,active
5.862,11289,0,0.0,0,1,0,active
5.8676,11295,0,0.0,0,1,0,active
5.8737,11301,0,0.0,0,1,0,active
5.8798,11307,0,0.0,0,1,0,active
5.8858,11313,0,0.0,0,1,0,active
5.8916,11319,0,0.0,0,1,0,active
5.8977,11325,0,0.0,0,1,0,active
5.9036,11331,0,0.0,0,1,0,active
5.9096,11337,0,0.0,0,1,0,active
5.9157,11343,0,0.0,0,1,0,active
5.9216,11349,0,0.0,0,1,0,active
5.9318,11355,0,0.0,0,1,0,active
5.9629,11361,0,0.0,0,1,0,active
5.9635,11367,0,0.0,0,1,0,active
5.9638,11373,0,0.0,0,1,0,active
5.9643,11379,0,0.0,0,1,0,active
5.9645,11385,0,0.0,0,1,0,active
5.9647,11391,0,0.0,0,1,0,active
5.9707,11397,0,0.0,0,1,0,active
5.9757,11403,0,0.0,0,1,0,active
5.9817,11409,0,0.0,0,1,0,active
5.9876,11415,0,0.0,0,1,0,active
5.9936,11421,0,0.0,0,1,0,active
5.9998,11427,0,0.0,0,1,0,active
6.0058,11433,0,0.0,0,1,0,active
6.0116,11439,0,0.0,0,1,0,active
6.0177,11445,0,0.0,0,1,0,active
6.0238,11451,0,0.0,0,1,0,active
6.0297,11457,0,0.0,0,1,0,active
6.0357,11463,0,0.0,0,1,0,active
6.0416,11469,0,0.0,0,1,0,active
6.0477,11475,0,0.0,0,1,0,active
6.0537,11481,0,0.0,0,1,0,active
6.0598,11487,0,0.0,0,1,0,active
6.0655,11493,0,0.0,0,1,0,active
6.0758,11499,0,0.0,0,1,0,active
6.0776,11505,0,0.0,0,1,0,active
6.1099,11511,0,0.0,0,1,0,active
6.1123,11517,0,0.0,0,1,0,active
6.113,11523,0,0.0,0,1,0,active
6.1132,11529,0,0.0,0,1,0,active
6.1133,11535,0,0.0,0,1,0,active
6.1184,11541,0,0.0,0,1,0,active
6.1208,11547,0,0.0,0,1,0,active
6.1258,11553,0,0.0,0,1,0,active
6.1318,11559,0,0.0,0,1,0,active
6.138,11565,0,0.0,0,1,0,active
6.1436,11571,0,0.0,0,1,0,active
6.1496,11577,0,0.0,0,1,0,active
6.1558,11583,0,0.0,0,1,0,active
6.1617,11589,0,0.0,0,1,0,active
6.1677,11595,0,0.0,0,1,0,active
6.1737,11601,0,0.0,0,1,0,active
6.1799,11607,0,0.0,0,1,0,active
6.1857,11613,0,0.0,0,1,0,active
6.1925,11619,0,0.0,0,1,0,active
6.1977,11625,0,0.0,0,1,0,active
6.2036,11631,2,0.2,0,1,0,active
6.2095,11637,0,0.18,0,1,0,active
6.2156,11643,0,0.16,0,1,0,active
6.2217,11649,0,0.15,0,1,0,active
6.2276,11655,0,0.13,0,1,0,active
6.2357,11661,0,0.12,0,1,0,active
6.2617,11667,0,0.11,0,1,0,active
6.2624,11673,0,0.1,0,1,0,active
6.2642,11679,0,0.09,0,1,0,active
6.2648,11685,0,0.08,0,1,0,active
6.265,11691,0,0.07,0,1,0,active
6.2712,11697,0,0.06,0,1,0,active
6.2757,11703,0,0.06,0,1,0,active
6.2818,11709,0,0.05,0,1,0,active
6.2877,11715,0,0.05,0,1,0,active
6.2946,11721,0,0.04,0,1,0,active
6.2997,11727,0,0.04,0,1,0,active
6.3057,11733,0,0.03,0,1,0,active
6.3117,11739,0,0.03,0,1,0,active
6.3176,11745,0,0.03,0,1,0,active
6.3238,11751,0,0.02,0,1,0,active
6.3298,11757,0,0.02,0,1,0,active
6.3356,11763,0,0.02,0,1,0,active
6.3419,11769,0,0.02,0,1,0,active
6.3477,11775,0,0.02,0,1,0,active
6.3536,11781,0,0.01,0,1,0,active
6.3596,11787,0,0.01,0,,,
6.3656,11793,0,0.01,0,,,
6.38,11799,0,0.01,0,,,
6.3899,11805,0,0.01,0,,,
6.3901,11811,0,0.01,0,,,
6.3904,11817,0,0.01,0,,,
6.4052,11823,0,0.01,0,,,
6.4068,11829,0,0.01,0,,,
6.4082,11835,0,0.01,0,,,
6.4151,11841,0,0.01,0,,,
6.4197,11847,0,0.0,0,,,
6.4256,11853,0,0.0,0,,,
6.4316,11859,0,0.0,0,,,
6.4378,11865,0,0.0,0,,,
6.4436,11871,0,0.0,0,,,
6.4498,11877,0,0.0,0,,,
6.4556,11883,0,0.0,0,,,
6.4617,11889,0,0.0,0,,,
6.4676,11895,0,0.0,0,,,
6.4739,11901,0,0.0,0,,,
6.4796,11907,0,0.0,0,,,
6.4856,11913,0,0.0,0,,,
6.4916,11919,0,0.0,0,,,
6.4975,11925,0,0.0,0,,,
6.5035,11931,0,0.0,0,,,
6.5096,11937,0,0.0,0,,,
6.5156,11943,0,0.0,0,,,
6.5216,11949,0,0.0,0,,,
6.5277,11955,0,0.0,0,,,
6.5454,11961,0,0.0,0,,,
6.5459,11967,3,0.3,0,,,
6.5595,11973,0,0.27,0,,,
6.5608,11979,0,0.24,0,,,
6.5616,11985,0,0.22,0,,,
6.5705,11991,0,0.2,0,,,
6.5708,11997,14,1.58,0,,,
6.5756,12003,0,1.42,0,,,
6.5817,12009,0,1.28,0,,,
6.5875,12015,0,1.15,0,,,
6.5936,12021,0,1.03,0,,,
6.5996,12027,0,0.93,0,,,
6.6056,12033,0,0.84,0,,,
6.6118,12039,0,0.75,0,,,
6.6177,12045,0,0.68,0,,,
6.6239,12051,0,0.61,0,,,
6.6296,12057,0,0.55,0,,,
6.6356,12063,0,0.5,0,,,
6.6416,12069,0,0.45,0,,,
6.6477,12075,0,0.4,0,,,
6.6537,12081,0,0.36,0,,,
6.6596,12087,0,0.32,0,,,
6.6656,12093,0,0.29,0,,,
6.6715,12099,0,0.26,0,,,
6.6776,12105,0,0.24,0,,,
6.6837,12111,0,0.21,0,,,
6.6896,12117,0,0.19,0,,,
6.6996,12123,0,0.17,0,,,
6.7309,12129,0,0.16,0,,,
6.7313,12135,0,0.14,0,,,
6.7316,12141,0,0.13,0,,,
6.7318,12147,0,0.11,0,,,
6.7325,12153,0,0.1,0,,,
6.7328,12159,0,0.09,0,,,
6.7387,12165,0,0.08,0,,,
6.7438,12171,0,0.07,0,,,
6.7496,12177,0,0.07,0,,,
6.7555,12183,0,0.06,0,,,
6.7618,12189,0,0.05,0,,,
6.7677,12195,0,0.05,0,,,
6.7737,12201,0,0.04,0,,,
6.7796,12207,0,0.04,0,,,
6.7858,12213,0,0.04,0,,,
6.7916,12219,0,0.03,0,,,
6.7977,12225,0,0.03,0,,,
6.8036,12231,0,0.03,0,,,
6.8096,12237,0,0.02,0,,,
6.8163,12243,0,0.02,0,,,
6.8217,12249,0,0.02,0,,,
6.8278,12255,0,0.02,0,,,
6.8337,12261,0,0.02,0,,,
6.8398,12267,0,0.01,0,,,
6.8458,12273,0,0.01,0,,,
6.8517,12279,0,0.01,0,,,
6.8643,12285,0,0.01,0,,,
6.8647,12291,0,0.01,0,,,
6.8838,12297,0,0.01,0,,,
6.8858,12303,0,0.01,0,,,
6.8867,12309,0,0.01,0,,,
6.8879,12315,0,0.01,0,,,
6.8939,12321,0,0.01,0,,,
6.8995,12327,3,0.3,0,,,
6.9056,12333,0,0.27,0,,,
6.9116,12339,0,0.25,0,,,
6.9179,12345,0,0.22,0,,,
6.9239,12351,0,0.2,0,,,
6.9296,12357,0,0.18,0,,,
6.9358,12363,0,0.16,0,,,
6.9416,12369,0,0.15,0,,,
6.9476,12375,6,0.73,0,,,
6.9536,12381,0,0.66,0,,,
6.9597,12387,0,0.59,0,,,
6.9656,12393,0,0.53,0,,,
6.9716,12399,0,0.48,0,,,
6.9776,12405,0,0.43,0,,,
6.9838,12411,0,0.39,0,,,
6.9895,12417,0,0.35,0,,,
6.9957,12423,0,0.31,0,,,
7.0082,12429,0,0.28,0,,,
7.0132,12435,0,0.25,0,,,
7.0193,12441,0,0.23,0,,,
7.0214,12447,0,0.21,0,,,
7.0313,12453,0,0.19,0,,,
7.0319,12459,0,0.17,0,,,
7.0464,12465,0,0.15,0,,,
7.0498,12471,0,0.14,0,,,
7.0501,12477,0,0.12,0,,,
7.0569,12483,0,0.11,0,,,
7.0656,12489,0,0.1,0,,,
7.0702,12495,0,0.09,0,,,
7.0742,12501,0,0.08,0,,,
7.0814,12507,0,0.07,0,,,
7.0863,12513,0,0.06,0,,,
7.0916,12519,0,0.06,0,,,
7.0976,12525,0,0.05,0,,,
7.1036,12531,0,0.05,0,,,
7.1096,12537,0,0.04,0,,,
7.1157,12543,0,0.04,0,,,
7.1218,12549,0,0.03,0,,,
7.1277,12555,0,0.03,0,,,
7.1337,12561,0,0.03,0,,,
7.1397,12567,0,0.03,0,,,
7.1456,12573,0,0.02,0,,,
7.1518,12579,0,0.02,0,,,
7.1578,12585,0,0.02,0,,,
7.1638,12591,0,0.02,0,,,
7.1833,12597,0,0.01,0,,,
7.1937,12603,0,0.01,0,,,
7.1939,12609,0,0.01,0,,,
7.1941,12615,0,0.01,0,,,
7.1942,12621,0,0.01,0,,,
7.2033,12627,0,0.01,0,,,
7.2199,12633,0,0.01,0,,,
7.2217,12639,0,0.01,0,,,
7.222,12645,0,0.01,0,,,
7.2236,12651,0,0.01,0,,,
7.2306,12657,0,0.01,0,,,
7.2356,12663,0,0.0,0,,,
7.2416,12669,0,0.0,0,,,
7.248,12675,0,0.0,0,,,
7.2536,12681,0,0.0,0,,,
7.2596,12687,0,0.0,0,,,
7.2657,12693,0,0.0,0,,,
7.2719,12699,0,0.0,0,,,
7.2779,12705,0,0.0,0,,,
7.2837,12711,0,0.0,0,,,
7.2898,12717,0,0.0,0,,,
7.2957,12723,0,0.0,0,,,
7.3017,12729,0,0.0,0,,,
7.309,12735,0,0.0,0,,,
7.3303,12741,0,0.0,0,,,
7.3308,12747,0,0.0,0,,,
7.3311,12753,0,0.0,0,,,
7.332,12759,0,0.0,0,,,
7.3396,12765,0,0.0,0,,,
7.3437,12771,0,0.0,0,,,
7.3495,12777,0,0.0,0,,,
7.3557,12783,0,0.0,0,,,
7.362,12789,0,0.0,0,,,
7.3675,12795,0,0.0,0,,,
7.3766,12801,0,0.0,0,,,
7.3917,12807,0,0.0,0,,,
7.3947,12813,0,0.0,0,,,
7.3951,12819,0,0.0,0,,,
7.3976,12825,0,0.0,0,,,
7.4036,12831,0,0.0,0,,,
7.4097,12837,0,0.0,0,,,
7.4157,12843,0,0.0,0,,,
7.4216,12849,0,0.0,0,,,
7.4275,12855,0,0.0,0,,,
7.4337,12861,0,0.0,0,,,
7.4395,12867,0,0.0,0,,,
7.4456,12873,0,0.0,0,,,
7.4517,12879,0,0.0,0,,,
7.4666,12885,0,0.0,0,,,
7.468,12891,0,0.0,0,,,
7.4729,12897,0,0.0,0,,,
7.4788,12903,0,0.0,0,,,
7.4817,12909,0,0.0,0,,,
7.4892,12915,0,0.0,0,,,
7.4937,12921,0,0.0,0,,,
7.4997,12927,0,0.0,0,,,
7.5056,12933,0,0.0,0,,,
7.5116,12939,0,0.0,0,,,
7.5175,12945,0,0.0,0,,,
7.5236,12951,0,0.0,0,,,
7.5297,12957,0,0.0,0,,,
7.5357,12963,0,0.0,0,,,
7.5478,12969,0,0.0,0,,,
7.548,12975,0,0.0,0,,,
7.5616,12981,0,0.0,0,,,
7.565,12987,0,0.0,0,,,
7.5662,12993,0,0.0,0,,,
7.5715,12999,0,0.0,0,,,
7.5775,13005,0,0.0,0,,,
7.5835,13011,0,0.0,0,,,
7.5898,13017,0,0.0,0,,,
7.5958,13023,0,0.0,0,,,
7.6017,13029,14,1.4,0,,,
7.6076,13035,0,1.26,0,,,
7.6218,13041,0,1.13,0,,,
7.6324,13047,0,1.02,0,,,
7.6329,13053,0,0.92,0,,,
7.6331,13059,0,0.83,0,,,
7.6401,13065,0,0.74,0,,,
7.6436,13071,0,0.67,0,,,
7.6502,13077,0,0.6,0,,,
7.6556,13083,0,0.54,0,,,
7.6638,13089,0,0.49,0,,,
7.6676,13095,0,0.44,0,,,
7.6737,13101,0,0.4,0,,,
7.6799,13107,0,0.36,0,,,
7.6856,13113,0,0.32,0,,,
7.6918,13119,0,0.29,0,,,
7.6979,13125,0,0.26,0,,,
7.7035,13131,0,0.23,0,,,
7.71,13137,0,0.21,0,,,
7.7228,13143,0,0.19,0,,,
7.723,13149,0,0.17,0,,,
7.7383,13155,0,0.15,0,,,
7.7409,13161,0,0.14,0,,,
7.7411,13167,0,0.12,0,,,
7.7501,13173,0,0.11,0,,,
7.7525,13179,0,0.1,0,,,
7.7576,13185,0,0.09,0,,,
7.7635,13191,0,0.08,0,,,
7.7789,13197,0,0.07,0,,,
7.7852,13203,0,0.07,0,,,
7.7926,13209,0,0.06,0,,,
7.7933,13215,0,0.05,0,,,
7.7936,13221,0,0.05,0,,,
7.8013,13227,0,0.04,0,,,
7.8058,13233,0,0.04,0,,,
7.8117,13239,0,0.04,0,,,
7.8178,13245,0,0.03,0,,,
7.8235,13251,0,0.03,0,,,
7.8297,13257,0,0.03,0,,,
7.8358,13263,0,0.02,0,,,
7.8419,13269,0,0.02,0,,,
7.8479,13275,0,0.02,0,,,
7.8537,13281,0,0.02,0,,,
7.8595,13287,0,0.02,0,,,
7.8655,13293,0,0.01,0,,,
7.8715,13299,0,0.01,0,,,
7.8776,13305,0,0.01,0,,,
7.8836,13311,0,0.01,0,,,
7.8898,13317,0,0.01,0,,,
7.8956,13323,0,0.01,0,,,
7.9036,13329,0,0.01,0,,,
7.9387,13335,0,0.01,0,,,
7.9391,13341,0,0.01,0,,,
7.9393,13347,0,0.01,0,,,
7.9399,13353,0,0.0,0,,,
7.9401,13359,0,0.0,0,,,
7.9403,13365,0,0.0,0,,,
7.9464,13371,0,0.0,0,,,
7.9496,13377,0,0.0,0,,,
7.9555,13383,0,0.0,0,,,
7.9615,13389,0,0.0,0,,,
7.9676,13395,0,0.0,0,,,
7.9736,13401,0,0.0,0,,,
7.9799,13407,0,0.0,0,,,
7.9858,13413,0,0.0,0,,,
7.9918,13419,0,0.0,0,,,
7.9976,13425,0,0.0,0,,,
8.0036,13431,0,0.0,0,,,
8.0095,13437,0,0.0,0,,,
8.0157,13443,0,0.0,0,,,
8.0216,13449,0,0.0,0,,,
8.0277,13455,0,0.0,0,,,
8.0336,13461,0,0.0,0,,,
8.0395,13467,0,0.0,0,,,
8.0455,13473,0,0.0,0,,,
8.0516,13479,0,0.0,0,,,
8.0576,13485,0,0.0,0,,,
8.0636,13491,0,0.0,0,,,
8.0698,13497,0,0.0,0,,,
8.0835,13503,0,0.0,0,,,
8.0839,13509,0,0.0,0,,,
8.1029,13515,0,0.0,0,,,
8.1032,13521,0,0.0,0,,,
8.1051,13527,0,0.0,0,,,
8.1059,13533,0,0.0,0,,,
8.1137,13539,0,0.0,0,,,
8.1176,13545,0,0.0,0,,,
8.1235,13551,0,0.0,0,,,
8.1296,13557,0,0.0,0,,,
8.1355,13563,0,0.0,0,,,
8.1416,13569,4,0.4,0,,,
8.1477,13575,10,1.36,0,,,
8.1537,13581,0,1.22,0,,,
8.1595,13587,0,1.1,0,,,
8.1656,13593,0,0.99,0,,,
8.1716,13599,0,0.89,0,,,
8.1775,13605,0,0.8,0,,,
8.1836,13611,0,0.72,0,,,
8.1895,13617,0,0.65,0,,,
8.1955,13623,0,0.59,0,,,
8.2016,13629,0,0.53,0,,,
8.2077,13635,0,0.47,0,,,
8.2136,13641,0,0.43,0,,,
8.2196,13647,0,0.38,0,,,
8.2355,13653,0,0.35,0,,,
8.2469,13659,0,0.31,0,,,
8.2472,13665,0,0.28,0,,,
8.2475,13671,0,0.25,0,,,
8.2496,13677,0,0.23,0,,,
8.2569,13683,0,0.2,0,,,
8.2616,13689,0,0.18,0,,,
8.2718,13695,0,0.17,0,,,
8.288,13701,0,0.15,0,,,
8.2914,13707,0,0.13,0,,,
8.2916,13713,0,0.12,0,,,
8.2937,13719,0,0.11,0,,,
8.2987,13725,0,0.1,0,,,
8.3038,13731,0,0.09,0,,,
8.3095,13737,0,0.08,0,,,
8.3155,13743,0,0.07,0,,,
8.3216,13749,0,0.06,0,,,
8.3277,13755,0,0.06,0,,,
8.3337,13761,0,0.05,0,,,
8.3395,13767,0,0.05,0,,,
8.3459,13773,0,0.04,0,,,
8.3517,13779,0,0.04,0,,,
8.3577,13785,0,0.03,0,,,
8.3636,13791,0,0.03,0,,,
8.3695,13797,0,0.03,0,,,
8.3756,13803,0,0.02,0,,,
8.3816,13809,0,0.02,0,,,
8.3942,13815,0,0.02,0,,,
8.4071,13821,0,0.02,0,,,
8.4075,13827,0,0.02,0,,,
8.4078,13833,0,0.01,0,,,
8.4116,13839,0,0.01,0,,,
8.4182,13845,0,0.01,0,,,
8.4235,13851,0,0.01,0,,,
8.4299,13857,0,0.01,0,,,
8.4355,13863,0,0.01,0,,,
8.4416,13869,0,0.01,0,,,
8.4475,13875,0,0.01,0,,,
8.4608,13881,0,0.01,0,,,
8.4611,13887,0,0.01,0,,,
8.4765,13893,0,0.01,0,2,0,active
8.4792,13899,0,0.0,0,2,0,active
8.4795,13905,0,0.0,0,2,0,active
8.4837,13911,0,0.0,0,2,0,active
8.4901,13917,0,0.0,0,2,0,active
8.4957,13923,0,0.0,0,2,0,active
8.5016,13929,0,0.0,0,2,0,active
8.5076,13935,0,0.0,0,2,0,active
8.5138,13941,0,0.0,0,2,0,active
8.5196,13947,0,0.0,0,2,0,active
8.5256,13953,0,0.0,0,2,0,active
8.5317,13959,0,0.0,0,2,0,active
8.5378,13965,0,0.0,0,2,0,active
8.5451,13971,0,0.0,0,2,0,active
8.5496,13977,0,0.0,0,2,0,active
8.5555,13983,0,0.0,0,2,0,active
8.5711,13989,0,0.0,0,2,0,active
8.5802,13995,0,0.0,0,2,0,active
8.5807,14001,0,0.0,0,2,0,active
8.5809,14007,0,0.0,0,2,0,active
8.588,14013,0,0.0,0,2,0,active
8.5915,14019,0,0.0,0,2,0,active
8.5975,14025,0,0.0,0,2,0,active
8.6035,14031,0,0.0,0,2,0,active
8.6095,14037,0,0.0,0,2,0,active
8.6158,14043,0,0.0,0,2,0,active
8.6219,14049,0,0.0,0,2,0,active
8.6278,14055,0,0.0,0,2,0,active
8.6338,14061,0,0.0,0,2,0,active
8.6396,14067,0,0.0,0,2,0,active
8.651,14073,0,0.0,0,2,0,active
8.6516,14079,0,0.0,0,2,0,active
8.667,14085,0,0.0,0,2,0,active
8.6681,14091,0,0.0,0,2,0,active
8.6699,14097,0,0.0,0,2,0,active
8.6759,14103,0,0.0,0,2,0,active
8.6815,14109,0,0.0,0,2,0,active
8.6875,14115,0,0.0,0,2,0,active
8.6936,14121,0,0.0,0,2,0,active
8.6996,14127,0,0.0,0,2,0,active
8.7056,14133,0,0.0,0,2,0,active
8.7117,14139,0,0.0,0,2,0,active
8.7249,14145,0,0.0,0,2,0,active
8.7353,14151,0,0.0,0,2,0,active
8.7365,14157,0,0.0,0,2,0,active
8.7367,14163,0,0.0,0,2,0,active
8.7437,14169,0,0.0,0,2,0,active
8.7477,14175,0,0.0,0,2,0,active
8.7537,14181,0,0.0,0,2,0,active
8.7595,14187,0,0.0,0,2,0,active
8.7658,14193,0,0.0,0,2,0,active
8.7716,14199,0,0.0,0,2,0,active
8.7775,14205,0,0.0,0,2,0,active
8.7837,14211,0,0.0,0,2,0,active
8.7895,14217,0,0.0,0,2,0,active
8.7955,14223,0,0.0,0,2,0,active
8.8016,14229,0,0.0,0,2,0,active
8.8076,14235,0,0.0,0,2,0,active
8.8135,14241,0,0.0,0,2,0,active
8.8204,14247,0,0.0,0,2,0,active
8.8257,14253,0,0.0,0,2,0,active
8.8316,14259,0,0.0,0,2,0,active
8.8375,14265,0,0.0,0,2,0,active
8.8478,14271,0,0.0,0,2,0,active
8.8809,14277,0,0.0,0,2,0,active
8.8816,14283,0,0.0,0,2,0,active
8.8819,14289,0,0.0,0,2,0,active
8.8822,14295,0,0.0,0,2,0,active
8.883,14301,0,0.0,0,2,0,active
8.8844,14307,0,0.0,0,2,0,active
8.8881,14313,0,0.0,0,2,0,active
8.8916,14319,0,0.0,0,2,0,active
8.8975,14325,0,0.0,0,2,0,active
8.9035,14331,0,0.0,0,2,0,active
8.9098,14337,0,0.0,0,2,0,active
8.9156,14343,0,0.0,0,2,0,active
8.9216,14349,0,0.0,0,2,0,active
8.9281,14355,0,0.0,0,2,0,active
8.9335,14361,0,0.0,0,2,0,active
8.9396,14367,0,0.0,0,2,0,active
8.9456,14373,0,0.0,0,2,0,active
8.9516,14379,0,0.0,0,2,0,active
8.9575,14385,0,0.0,0,2,0,active
8.9635,14391,0,0.0,0,2,0,active
8.9695,14397,0,0.0,0,2,0,active
8.9755,14403,0,0.0,0,2,0,active
8.9816,14409,0,0.0,0,2,0,active
8.9876,14415,0,0.0,0,2,0,active
8.9935,14421,0,0.0,0,2,0,active
9.0229,14427,0,0.0,0,2,0,active
9.0232,14433,0,0.0,0,2,0,active
9.0234,14439,0,0.0,0,2,0,active
9.0237,14445,0,0.0,0,2,0,active
9.0238,14451,0,0.0,0,2,0,active
9.031,14457,0,0.0,0,2,0,active
9.0358,14463,0,0.0,0,2,0,active
9.0414,14469,0,0.0,0,2,0,active
9.0531,14475,0,0.0,0,2,0,active
9.0534,14481,0,0.0,0,2,0,active
9.0679,14487,0,0.0,0,2,0,active
9.0696,14493,0,0.0,0,2,0,active
9.0717,14499,0,0.0,0,2,0,active
9.0786,14505,0,0.0,0,2,0,active
9.0836,14511,0,0.0,0,2,0,active
9.0895,14517,0,0.0,0,2,0,active
9.0955,14523,0,0.0,0,2,0,active
9.1015,14529,0,0.0,0,2,0,active
9.1076,14535,0,0.0,0,2,0,active
9.1135,14541,0,0.0,0,2,0,active
9.1195,14547,0,0.0,0,2,0,active
9.1256,14553,0,0.0,0,2,0,active
9.1315,14559,0,0.0,0,2,0,active
9.1468,14565,0,0.0,0,2,0,active
9.1533,14571,0,0.0,0,2,0,active
9.1611,14577,0,0.0,0,2,0,active
9.1616,14583,0,0.0,0,2,0,active
9.1622,14589,0,0.0,0,2,0,active
9.1687,14595,0,0.0,0,2,0,active
9.1737,14601,0,0.0,0,2,0,active
9.1796,14607,0,0.0,0,2,0,active
9.1856,14613,0,0.0,0,2,0,active
9.1916,14619,0,0.0,0,2,0,active
9.1975,14625,0,0.0,0,2,0,active
9.2035,14631,0,0.0,0,2,0,active
9.2095,14637,0,0.0,0,2,0,active
9.2155,14643,0,0.0,0,2,0,active
9.2215,14649,0,0.0,0,2,0,active
9.2275,14655,0,0.0,0,2,0,active
9.2335,14661,0,0.0,0,2,0,active
9.2395,14667,0,0.0,0,2,0,active
9.2454,14673,0,0.0,0,2,0,active
9.256,14679,0,0.0,0,2,0,active
9.2691,14685,0,0.0,0,2,0,active
9.2713,14691,0,0.0,0,2,0,active
9.2728,14697,0,0.0,0,2,0,active
9.2756,14703,0,0.0,0,2,0,active
9.2816,14709,0,0.0,0,2,0,active
9.2875,14715,0,0.0,0,2,0,active
9.298,14721,0,0.0,0,2,0,active
9.3108,14727,0,0.0,0,2,0,active
9.3111,14733,0,0.0,0,2,0,active
9.3115,14739,0,0.0,0,2,0,active
9.3187,14745,0,0.0,0,2,0,active
9.3236,14751,0,0.0,0,2,0,active
9.3296,14757,0,0.0,0,2,0,active
9.3355,14763,0,0.0,0,2,0,active
9.3415,14769,0,0.0,0,2,0,active
9.3476,14775,0,0.0,0,2,0,active
9.3537,14781,0,0.0,0,2,0,active
9.3603,14787,0,0.0,0,2,0,active
9.3656,14793,0,0.0,0,2,0,active
9.3715,14799,0,0.0,0,2,0,active
9.3774,14805,0,0.0,0,2,0,active
9.3837,14811,0,0.0,0,2,0,active
9.3907,14817,0,0.0,0,2,0,active
9.3959,14823,0,0.0,0,2,0,active
9.4016,14829,0,0.0,0,2,0,active
9.4076,14835,0,0.0,0,2,0,active
9.4136,14841,0,0.0,0,2,0,active
9.4253,14847,0,0.0,0,2,0,active
9.4397,14853,0,0.0,0,2,0,active
9.4416,14859,0,0.0,0,2,0,active
9.4419,14865,0,0.0,0,2,0,active
9.4435,14871,0,0.0,0,2,0,active
9.4496,14877,0,0.0,0,2,0,active
9.4625,14883,0,0.0,0,2,0,active
9.4628,14889,0,0.0,0,2,0,active
9.4777,14895,0,0.0,0,2,0,active
9.479,14901,0,0.0,0,2,0,active
9.4806,14907,0,0.0,0,2,0,active
9.486,14913,0,0.0,0,2,0,active
9.4918,14919,0,0.0,0,2,0,active
9.4975,14925,0,0.0,0,2,0,active
9.5035,14931,0,0.0,0,2,0,active
9.5095,14937,0,0.0,0,2,0,active
9.5155,14943,0,0.0,0,2,0,active
9.5217,14949,0,0.0,0,2,0,active
9.5275,14955,0,0.0,0,2,0,active
9.5336,14961,0,0.0,0,2,0,active
9.5397,14967,0,0.0,0,2,0,active
9.5457,14973,0,0.0,0,2,0,active
9.5516,14979,0,0.0,0,2,0,active
9.5576,14985,0,0.0,0,2,0,active
9.5635,14991,0,0.0,0,2,0,active
9.5695,14997,0,0.0,0,2,0,active
9.5756,15003,0,0.0,0,2,0,active
9.5852,15009,0,0.0,0,2,0,active
9.5894,15015,0,0.0,0,2,0,active
9.5968,15021,0,0.0,0,2,0,active
9.5998,15027,0,0.0,0,2,0,active
9.6077,15033,0,0.0,0,2,0,active
9.6115,15039,0,0.0,0,2,0,active
9.6175,15045,0,0.0,0,2,0,active
9.6235,15051,0,0.0,0,2,0,active
9.6295,15057,0,0.0,0,2,0,active
9.6356,15063,0,0.0,0,2,0,active
9.6415,15069,0,0.0,0,2,0,active
9.6476,15075,0,0.0,0,2,0,active
9.6536,15081,0,0.0,0,2,0,active
9.6595,15087,0,0.0,0,2,0,active
9.6698,15093,0,0.0,0,2,0,active
9.6825,15099,0,0.0,0,2,0,active
9.6839,15105,0,0.0,0,2,0,active
9.6854,15111,0,0.0,0,2,0,active
9.6898,15117,0,0.0,0,2,0,active
9.6957,15123,0,0.0,0,2,0,active
9.7015,15129,0,0.0,0,2,0,active
9.7076,15135,0,0.0,0,2,0,active
9.7134,15141,0,0.0,0,2,0,active
9.7196,15147,0,0.0,0,2,0,active
9.7257,15153,0,0.0,0,2,0,active
9.7317,15159,0,0.0,0,2,0,active
9.7375,15165,0,0.0,0,2,0,active
9.7435,15171,0,0.0,0,2,0,active
9.7575,15177,0,0.0,0,2,0,active
9.7651,15183,0,0.0,0,2,0,active
9.7702,15189,0,0.0,0,2,0,active
9.7704,15195,0,0.0,0,2,0,active
9.7736,15201,0,0.0,0,2,0,active
9.7809,15207,0,0.0,0,2,0,active
9.7857,15213,0,0.0,0,2,0,active
9.7917,15219,0,0.0,0,2,0,active
9.7975,15225,0,0.0,0,2,0,active
9.8035,15231,0,0.0,0,2,0,active
9.8095,15237,0,0.0,0,2,0,active
9.8155,15243,0,0.0,0,2,0,active
9.8215,15249,0,0.0,0,2,0,active
9.8276,15255,0,0.0,0,2,0,active
9.8337,15261,0,0.0,0,2,0,active
9.8396,15267,0,0.0,0,2,0,active
9.8455,15273,0,0.0,0,2,0,active
9.8515,15279,0,0.0,0,2,0,active
9.8577,15285,0,0.0,0,2,0,active
9.8636,15291,0,0.0,0,2,0,active
9.8767,15297,0,0.0,0,2,0,active
9.8769,15303,0,0.0,0,2,0,active
9.8903,15309,0,0.0,0,2,0,active
9.8926,15315,0,0.0,0,2,0,active
9.9148,15321,0,0.0,0,2,0,active
9.9176,15327,0,0.0,0,2,0,active
9.918,15333,0,0.0,0,2,0,active
9.9185,15339,0,0.0,0,2,0,active
9.9187,15345,0,0.0,0,2,0,active
9.9252,15351,0,0.0,0,2,0,active
9.9296,15357,0,0.0,0,2,0,active
9.9357,15363,0,0.0,0,2,0,active
9.9418,15369,0,0.0,0,2,0,active
9.9475,15375,0,0.0,0,2,0,active
9.9538,15381,0,0.0,0,2,0,active
9.9595,15387,0,0.0,0,2,0,active
9.9657,15393,0,0.0,0,2,0,active
9.9715,15399,0,0.0,0,2,0,active
9.9775,15405,0,0.0,0,2,0,active
9.9836,15411,0,0.0,0,2,0,active
9.9895,15417,0,0.0,0,2,0,active
9.9955,15423,0,0.0,0,2,0,active
10.0016,15429,0,0.0,0,2,0,active
10.0075,15435,0,0.0,0,2,0,active
10.0135,15441,0,0.0,0,2,0,active
10.0195,15447,0,0.0,0,2,0,active
10.0255,15453,0,0.0,0,2,0,active
10.0417,15459,0,0.0,0,2,0,active
10.0452,15465,0,0.0,0,2,0,active
10.0492,15471,0,0.0,0,2,0,active
10.0542,15477,0,0.0,0,2,0,active
10.0558,15483,0,0.0,0,2,0,active
10.0629,15489,0,0.0,0,2,0,active
10.0675,15495,0,0.0,0,2,0,active
10.0735,15501,0,0.0,0,2,0,active
10.0795,15507,0,0.0,0,2,0,active
10.093,15513,0,0.0,0,2,0,active
10.0944,15519,0,0.0,0,2,0,active
10.108,15525,0,0.0,0,2,0,active
10.1106,15531,0,0.0,0,2,0,active
10.1108,15537,0,0.0,0,2,0,active
10.1167,15543,0,0.0,0,2,0,active
10.1214,15549,0,0.0,0,2,0,active
10.1275,15555,0,0.0,0,2,0,active
10.1336,15561,0,0.0,0,2,0,active
10.1395,15567,0,0.0,0,2,0,active
10.1455,15573,0,0.0,0,2,0,active
10.1517,15579,0,0.0,0,2,0,active
10.1575,15585,0,0.0,0,2,0,active
10.1635,15591,0,0.0,0,2,0,active
10.1802,15597,0,0.0,0,2,0,active
10.1936,15603,0,0.0,0,2,0,active
10.1945,15609,0,0.0,0,2,0,active
10.1947,15615,0,0.0,0,2,0,active
10.1949,15621,0,0.0,0,2,0,active
10.2011,15627,0,0.0,0,2,0,active
10.2057,15633,0,0.0,0,2,0,active
10.2116,15639,0,0.0,0,2,0,active
10.2176,15645,0,0.0,0,2,0,active
10.2236,15651,0,0.0,0,2,0,active
10.2295,15657,0,0.0,0,2,0,active
10.2355,15663,0,0.0,0,2,0,active
10.2417,15669,0,0.0,0,2,0,active
10.2476,15675,0,0.0,0,2,0,active
10.2536,15681,0,0.0,0,2,0,active
10.2599,15687,0,0.0,0,2,0,active
10.2655,15693,0,0.0,0,2,0,active
10.2715,15699,0,0.0,0,2,0,active
10.2776,15705,0,0.0,0,2,0,active
10.2835,15711,0,0.0,0,2,0,active
10.2895,15717,0,0.0,0,2,0,active
10.2954,15723,0,0.0,0,2,0,active
10.3014,15729,0,0.0,0,2,0,active
10.3135,15735,0,0.0,0,2,0,active
10.3144,15741,0,0.0,0,2,0,active
10.3301,15747,0,0.0,0,2,0,active
10.3318,15753,0,0.0,0,2,0,active
10.332,15759,0,0.0,0,2,0,active
10.3411,15765,0,0.0,0,2,0,active
10.3436,15771,0,0.0,0,2,0,active
10.3496,15777,0,0.0,0,2,0,active
10.3556,15783,0,0.0,0,2,0,active
10.3615,15789,0,0.0,0,2,0,active
10.3676,15795,0,0.0,0,2,0,active
10.3737,15801,0,0.0,0,2,0,active
10.3799,15807,0,0.0,0,2,0,active
10.3857,15813,0,0.0,0,2,0,active
10.3915,15819,0,0.0,0,2,0,active
10.3975,15825,0,0.0,0,2,0,active
10.4035,15831,0,0.0,0,2,0,active
10.4096,15837,0,0.0,0,2,0,active
10.4156,15843,0,0.0,0,2,0,active
10.4216,15849,0,0.0,0,2,0,active
10.4275,15855,0,0.0,0,2,0,active
10.4335,15861,0,0.0,0,2,0,active
10.4397,15867,0,0.0,0,2,0,active
10.4456,15873,0,0.0,0,2,0,active
10.4514,15879,0,0.0,0,2,0,active
10.4692,15885,0,0.0,0,,,
10.4774,15891,0,0.0,0,,,
10.4777,15897,0,0.0,0,,,
10.478,15903,0,0.0,0,,,
10.4815,15909,0,0.0,0,,,
10.4881,15915,0,0.0,0,,,
10.4937,15921,0,0.0,0,,,
10.4997,15927,11,1.1,0,,,
10.506,15933,0,0.99,0,,,
10.5162,15939,0,0.89,0,,,
10.5203,15945,0,0.8,0,,,
10.5238,15951,0,0.72,0,,,
10.531,15957,0,0.65,0,,,
10.5355,15963,0,0.58,0,,,
10.5456,15969,0,0.53,0,,,
10.5474,15975,0,0.47,0,,,
10.5632,15981,0,0.43,0,,,
10.5646,15987,0,0.38,0,,,
10.5664,15993,0,0.35,0,,,
10.5719,15999,0,0.31,0,,,
10.5778,16005,0,0.28,0,,,
10.5837,16011,0,0.25,0,,,
10.5896,16017,0,0.23,0,,,
10.5957,16023,0,0.2,0,,,
10.6016,16029,0,0.18,0,,,
10.6076,16035,0,0.17,0,,,
10.6135,16041,0,0.15,0,,,
10.6195,16047,0,0.13,0,,,
10.6256,16053,0,0.12,0,,,
10.6318,16059,0,0.11,0,,,
10.6472,16065,0,0.1,0,,,
10.6584,16071,0,0.09,0,,,
10.6614,16077,0,0.08,0,,,
10.6616,16083,0,0.07,0,,,
10.6618,16089,0,0.06,0,,,
10.6689,16095,0,0.06,0,,,
10.6735,16101,0,0.05,0,,,
10.6796,16107,0,0.05,0,,,
10.6855,16113,0,0.04,0,,,
10.6915,16119,0,0.04,0,,,
10.6975,16125,0,0.03,0,,,
10.7036,16131,0,0.03,0,,,
10.7097,16137,0,0.03,0,,,
10.7154,16143,0,0.02,0,,,
10.7216,16149,0,0.02,0,,,
10.7275,16155,0,0.02,0,,,
10.7335,16161,0,0.02,0,,,
10.7404,16167,0,0.02,0,,,
10.7458,16173,0,0.01,0,,,
10.7515,16179,0,0.01,0,,,
10.7574,16185,0,0.01,0,,,
10.7635,16191,0,0.01,0,,,
10.7695,16197,0,0.01,0,,,
10.7819,16203,0,0.01,0,,,
10.7825,16209,0,0.01,0,,,
10.791,16215,0,0.01,0,,,
10.8019,16221,0,0.01,0,,,
10.8043,16227,0,0.01,0,,,
10.8117,16233,0,0.01,0,,,
10.812,16239,0,0.0,0,,,
10.8175,16245,0,0.0,0,,,
10.8234,16251,0,0.0,0,,,
10.8295,16257,0,0.0,0,,,
10.8357,16263,0,0.0,0,,,
10.8435,16269,0,0.0,0,,,
10.8477,16275,0,0.0,0,,,
10.8537,16281,0,0.0,0,,,
10.8595,16287,0,0.0,0,,,
10.8657,16293,0,0.0,0,,,
10.8718,16299,0,0.0,0,,,
10.8779,16305,0,0.0,0,,,
10.8836,16311,3,0.3,0,,,
10.8896,16317,0,0.27,0,,,
10.8956,16323,0,0.24,0,,,
10.9016,16329,0,0.22,0,,,
10.9075,16335,0,0.2,0,,,
10.9206,16341,0,0.18,0,,,
10.9273,16347,0,0.16,0,,,
10.9337,16353,0,0.14,0,,,
10.9339,16359,0,0.13,0,,,
10.9399,16365,0,0.12,0,,,
10.9438,16371,0,0.11,0,,,
10.9495,16377,0,0.09,0,,,
10.9555,16383,0,0.09,0,,,
10.9615,16389,0,0.08,0,,,
10.9677,16395,0,0.07,0,,,
10.9737,16401,0,0.06,0,,,
10.9795,16407,0,0.06,0,,,
10.9858,16413,0,0.05,0,,,
10.9915,16419,0,0.05,0,,,
10.9975,16425,0,0.04,0,,,
11.0036,16431,0,0.04,0,,,
11.0094,16437,0,0.03,0,,,
11.0192,16443,2,0.23,0,,,
11.0335,16449,0,0.21,0,,,
11.035,16455,46,4.79,0,,,
11.0367,16461,0,4.31,0,,,
11.0398,16467,0,3.88,0,,,
11.0455,16473,0,3.49,0,,,
11.0515,16479,0,3.14,0,,,
11.0576,16485,0,2.83,0,,,
11.0637,16491,0,2.54,0,,,
11.0697,16497,0,2.29,0,,,
11.086,16503,0,2.06,0,,,
11.0954,16509,0,1.85,0,,,
11.0963,16515,0,1.67,0,,,
11.0965,16521,0,1.5,0,,,
11.1033,16527,0,1.35,0,,,
11.1055,16533,0,1.22,0,,,
11.1117,16539,0,1.09,0,,,
11.1176,16545,0,0.99,0,,,
11.1234,16551,0,0.89,0,,,
11.1295,16557,0,0.8,0,,,
11.1357,16563,0,0.72,0,,,
11.1415,16569,0,0.65,0,,,
11.1475,16575,0,0.58,0,,,
11.1535,16581,0,0.52,0,,,
11.1596,16587,0,0.47,0,,,
11.1655,16593,0,0.42,0,,,
11.1714,16599,0,0.38,0,,,
11.1779,16605,0,0.34,0,,,
11.1836,16611,0,0.31,0,,,
11.191,16617,0,0.28,0,,,
11.1958,16623,0,0.25,0,,,
11.2015,16629,0,0.23,0,,,
11.2075,16635,0,0.2,0,,,
11.2135,16641,0,0.18,0,,,
11.2196,16647,0,0.16,0,,,
11.2349,16653,0,0.15,0,,,
11.2388,16659,0,0.13,0,,,
11.2392,16665,0,0.12,0,,,
11.2519,16671,0,0.11,0,,,
11.2523,16677,0,0.1,0,,,
11.2597,16683,0,0.09,0,,,
11.2682,16689,2,0.28,0,,,
11.27,16695,0,0.25,0,,,
11.2746,16701,0,0.23,0,,,
11.2804,16707,0,0.2,0,,,
11.2856,16713,0,0.18,0,,,
11.2936,16719,0,0.16,0,,,
11.2975,16725,0,0.15,0,,,
11.3036,16731,0,0.13,0,,,
11.3094,16737,0,0.12,0,,,
11.3156,16743,0,0.11,0,,,
11.3216,16749,0,0.1,0,,,
11.3274,16755,0,0.09,0,,,
11.3334,16761,0,0.08,0,,,
11.3394,16767,0,0.07,0,,,
11.3454,16773,0,0.06,0,,,
11.3516,16779,0,0.06,0,,,
11.3576,16785,0,0.05,0,,,
11.3636,16791,0,0.05,0,,,
11.3697,16797,0,0.04,0,,,
11.384,16803,0,0.04,0,,,
11.3973,16809,0,0.03,0,,,
11.3975,16815,0,0.03,0,,,
11.3978,16821,0,0.03,0,,,
11.3995,16827,0,0.02,0,,,
11.4071,16833,0,0.02,0,,,
11.4116,16839,0,0.02,0,,,
11.4175,16845,0,0.02,0,,,
11.4235,16851,0,0.02,0,,,
11.4296,16857,0,0.01,0,,,
11.4357,16863,0,0.01,0,,,
11.4415,16869,0,0.01,0,,,
11.4478,16875,0,0.01,0,,,
11.4535,16881,0,0.01,0,,,
11.4597,16887,0,0.01,0,,,
11.4657,16893,0,0.01,0,,,
11.4715,16899,0,0.01,0,,,
11.4775,16905,0,0.01,0,,,
11.4868,16911,0,0.01,0,,,
11.5004,16917,0,0.01,0,,,
11.5023,16923,0,0.0,0,,,
11.5026,16929,0,0.0,0,,,
11.5081,16935,0,0.0,0,,,
11.5137,16941,0,0.0,0,,,
11.5195,16947,0,0.0,0,,,
11.5345,16953,0,0.0,0,,,
11.5406,16959,0,0.0,0,,,
11.5482,16965,0,0.0,0,,,
11.5484,16971,0,0.0,0,,,
11.5495,16977,0,0.0,0,,,
11.5565,16983,0,0.0,0,,,
11.5616,16989,0,0.0,0,,,
11.5676,16995,0,0.0,0,,,
11.5736,17001,0,0.0,0,,,
11.5795,17007,0,0.0,0,,,
11.5857,17013,0,0.0,0,,,
11.5916,17019,0,0.0,0,,,
11.5976,17025,0,0.0,0,,,
11.6035,17031,0,0.0,0,,,
11.6094,17037,0,0.0,0,,,
11.6155,17043,0,0.0,0,,,
11.6215,17049,0,0.0,0,,,
11.6275,17055,0,0.0,0,,,
11.6334,17061,0,0.0,0,,,
11.6395,17067,0,0.0,0,,,
11.6456,17073,0,0.0,0,,,
11.6516,17079,0,0.0,0,,,
11.6574,17085,0,0.0,0,,,
11.6635,17091,0,0.0,0,,,
11.6696,17097,0,0.0,0,,,
11.6755,17103,0,0.0,0,,,
11.6816,17109,0,0.0,0,,,
11.6986,17115,0,0.0,0,,,
11.7096,17121,0,0.0,0,,,
11.7104,17127,0,0.0,0,,,
11.7107,17133,0,0.0,0,,,
11.7116,17139,0,0.0,0,,,
11.7239,17145,0,0.0,0,,,
11.7241,17151,0,0.0,0,,,
11.7386,17157,0,0.0,0,,,
11.74,17163,2,0.2,0,,,
11.742,17169,0,0.18,0,,,
11.7477,17175,0,0.16,0,,,
11.7534,17181,0,0.15,0,,,
11.7594,17187,7,0.83,0,,,
11.7656,17193,0,0.75,0,,,
11.7716,17199,0,0.67,0,,,
11.7777,17205,0,0.61,0,,,
11.7837,17211,0,0.55,0,,,
11.7894,17217,0,0.49,0,,,
11.7956,17223,0,0.44,0,,,
11.8015,17229,0,0.4,0,,,
11.8075,17235,4,0.76,0,,,
11.8136,17241,0,0.68,0,,,
11.8195,17247,0,0.61,0,,,
11.8255,17253,0,0.55,0,,,
11.8318,17259,0,0.5,0,,,
11.8375,17265,0,0.45,0,,,
11.8435,17271,0,0.4,0,,,
11.8545,17277,0,0.36,0,,,
11.863,17283,0,0.33,0,,,
11.8685,17289,0,0.29,0,,,
11.8689,17295,0,0.26,0,,,
11.875,17301,0,0.24,0,,,
11.8796,17307,0,0.21,0,,,
11.8856,17313,0,0.19,0,,,
11.8916,17319,0,0.17,0,,,
11.8974,17325,0,0.16,0,,,
11.9034,17331,0,0.14,0,,,
11.9098,17337,16,1.73,0,,,
11.9154,17343,0,1.55,0,,,
11.9215,17349,10,2.4,0,,,
11.9274,17355,0,2.16,0,,,
11.9334,17361,0,1.94,0,,,
11.9395,17367,0,1.75,0,,,
11.9456,17373,0,1.57,0,,,
11.9516,17379,0,1.42,0,,,
11.9574,17385,0,1.27,0,,,
11.9716,17391,0,1.15,0,,,
11.9718,17397,0,1.03,0,,,
11.9851,17403,0,0.93,0,,,
11.9863,17409,0,0.84,0,,,
11.9879,17415,0,0.75,0,,,
12.0115,17421,0,0.68,0,,,
12.0167,17427,0,0.61,0,,,
12.0169,17433,0,0.55,0,,,
12.0171,17439,0,0.49,0,,,
12.0176,17445,0,0.44,0,,,
12.025,17451,0,0.4,0,,,
12.0295,17457,0,0.36,0,,,
12.0354,17463,0,0.32,0,,,
12.0415,17469,0,0.29,0,,,
12.0476,17475,0,0.26,0,,,
12.0544,17481,0,0.24,0,,,
12.0596,17487,0,0.21,0,,,
12.0655,17493,0,0.19,0,,,
12.0715,17499,0,0.17,0,,,
12.0774,17505,0,0.15,0,,,
12.0835,17511,0,0.14,0,,,
12.0897,17517,0,0.13,0,,,
12.0956,17523,0,0.11,0,,,
12.1016,17529,0,0.1,0,,,
12.1075,17535,0,0.09,0,,,
12.1136,17541,1,0.18,0,,,
12.1198,17547,0,0.16,0,,,
12.1255,17553,0,0.15,0,,,
12.1336,17559,0,0.13,0,,,
12.1375,17565,0,0.12,0,,,
12.1436,17571,0,0.11,0,,,
12.154,17577,0,0.1,0,,,
12.1682,17583,0,0.09,0,,,
12.1691,17589,0,0.08,0,,,
12.1693,17595,0,0.07,0,,,
12.1768,17601,0,0.06,0,,,
12.1795,17607,0,0.06,0,,,
12.1855,17613,0,0.05,0,,,
12.1914,17619,0,0.05,0,,,
12.1975,17625,0,0.04,0,,,
12.2038,17631,0,0.04,0,,,
12.2093,17637,0,0.03,0,,,
12.2221,17643,0,0.03,0,,,
12.2223,17649,0,0.03,0,,,
12.2366,17655,0,0.02,0,,,
12.2393,17661,0,0.02,0,,,
12.2411,17667,0,0.02,0,,,
12.2454,17673,0,0.02,0,,,
12.2515,17679,0,0.02,0,,,
12.2574,17685,0,0.01,0,,,
12.2634,17691,0,0.01,0,,,
12.2697,17697,0,0.01,0,,,
12.2756,17703,0,0.01,0,,,
12.2814,17709,0,0.01,0,,,
12.2875,17715,0,0.01,0,,,
12.2937,17721,0,0.01,0,,,
12.3182,17727,0,0.01,0,,,
12.3235,17733,0,0.01,0,,,
12.3238,17739,0,0.01,0,,,
12.3241,17745,0,0.01,0,,,
12.3243,17751,0,0.0,0,,,
12.3319,17757,0,0.0,0,,,
12.3355,17763,0,0.0,0,,,
12.3415,17769,0,0.0,0,,,
12.3474,17775,0,0.0,0,,,
12.3536,17781,11,1.1,0,,,
12.3596,17787,0,0.99,0,,,
12.3656,17793,6,1.49,0,,,
12.3716,17799,0,1.34,0,,,
12.3775,17805,0,1.21,0,,,
12.3835,17811,0,1.09,0,,,
12.3895,17817,0,0.98,0,,,
12.3954,17823,0,0.88,0,,,
12.4014,17829,0,0.79,0,,,
12.4075,17835,0,0.71,0,,,
12.4134,17841,0,0.64,0,,,
12.4194,17847,0,0.58,0,,,
12.4254,17853,0,0.52,0,,,
12.4408,17859,0,0.47,0,,,
12.4454,17865,0,0.42,0,,,
12.449,17871,0,0.38,0,,,
12.4496,17877,0,0.34,0,,,
12.457,17883,0,0.31,0,,,
12.4703,17889,0,0.28,0,,,
12.4705,17895,0,0.25,0,,,
12.4869,17901,0,0.22,0,,,
12.4888,17907,0,0.2,0,,,
12.489,17913,0,0.18,0,,,
12.4915,17919,0,0.16,0,,,
12.4975,17925,0,0.15,0,,,
12.5035,17931,10,1.13,0,,,
12.5094,17937,0,1.02,0,,,
12.5157,17943,0,0.92,0,,,
12.5215,17949,0,0.83,0,,,
12.5275,17955,0,0.74,0,,,
12.5334,17961,9,1.57,0,,,
12.5394,17967,0,1.41,0,,,
12.5455,17973,0,1.27,0,,,
12.5515,17979,0,1.14,0,,,
12.5575,17985,0,1.03,0,,,
12.5636,17991,0,0.93,0,,,
12.5849,17997,0,0.83,0,,,
12.592,18003,0,0.75,0,,,
12.5926,18009,0,0.68,0,,,
12.5928,18015,0,0.61,0,,,
12.5935,18021,0,0.55,0,,,
12.6004,18027,0,0.49,0,,,
12.6054,18033,0,0.44,0,,,
12.6114,18039,0,0.4,0,,,
12.6176,18045,0,0.36,0,,,
12.6237,18051,0,0.32,0,,,
12.6296,18057,0,0.29,0,,,
12.6354,18063,0,0.26,0,,,
12.6414,18069,0,0.24,0,,,
12.6474,18075,0,0.21,0,,,
12.6535,18081,0,0.19,0,,,
12.6594,18087,0,0.17,0,,,
12.6656,18093,0,0.15,0,,,
12.6715,18099,0,0.14,0,,,
12.6774,18105,0,0.13,0,,,
12.6836,18111,0,0.11,0,,,
12.6893,18117,0,0.1,0,,,
12.6955,18123,0,0.09,0,,,
12.7015,18129,0,0.08,0,,,
12.7073,18135,0,0.07,0,,,
12.7173,18141,0,0.07,0,,,
12.7437,18147,0,0.06,0,,,
12.7443,18153,0,0.05,0,,,
12.7445,18159,0,0.05,0,,,
12.745,18165,0,0.04,0,,,
12.7454,18171,0,0.04,0,,,
12.7517,18177,0,0.04,0,,,
12.7555,18183,0,0.03,0,,,
12.7616,18189,0,0.03,0,,,
12.7675,18195,0,0.03,0,,,
12.7733,18201,0,0.02,0,,,
12.7794,18207,0,0.02,0,,,
12.7856,18213,0,0.02,0,,,
12.7915,18219,0,0.02,0,,,
12.7974,18225,0,0.02,0,,,
12.8035,18231,0,0.01,0,,,
12.8098,18237,0,0.01,0,,,
12.8154,18243,0,0.01,0,,,
12.8215,18249,0,0.01,0,,,
12.8275,18255,0,0.01,0,,,
12.8335,18261,0,0.01,0,,,
12.8395,18267,0,0.01,0,,,
12.8454,18273,0,0.01,0,,,
12.8516,18279,0,0.01,0,,,
12.8575,18285,0,0.01,0,,,
12.864,18291,0,0.0,0,,,
12.8695,18297,0,0.0,0,,,
12.8922,18303,39,3.9,0,,,
12.8948,18309,0,3.51,0,,,
12.8955,18315,0,3.16,0,,,
12.8961,18321,0,2.85,0,,,
12.9023,18327,0,2.56,0,,,
12.9057,18333,0,2.31,0,,,
12.9115,18339,0,2.07,0,,,
12.9174,18345,0,1.87,0,,,
12.9234,18351,0,1.68,0,,,
12.9294,18357,0,1.51,0,,,
12.9357,18363,0,1.36,0,,,
12.9417,18369,0,1.23,0,,,
12.9475,18375,0,1.1,0,,,
12.9537,18381,0,0.99,0,,,
12.9594,18387,0,0.89,0,,,
12.9726,18393,0,0.8,0,,,
12.9738,18399,0,0.72,0,,,
12.9899,18405,0,0.65,0,,,
12.991,18411,0,0.59,0,,,
12.9927,18417,0,0.53,0,,,
12.9956,18423,0,0.47,0,,,
13.0015,18429,0,0.43,0,,,
13.0076,18435,0,0.38,0,,,
13.0134,18441,0,0.35,0,,,
13.0195,18447,0,0.31,0,,,
13.029,18453,0,0.28,0,,,
13.0448,18459,0,0.25,0,,,
13.0453,18465,0,0.23,0,,,
13.0463,18471,0,0.2,0,,,
13.0518,18477,0,0.18,0,,,
13.0557,18483,0,0.17,0,,,
13.0614,18489,0,0.15,0,,,
13.0674,18495,0,0.13,0,,,
13.0734,18501,0,0.12,0,,,
13.0798,18507,0,0.11,0,,,
13.0861,18513,0,0.1,0,,,
13.0918,18519,0,0.09,0,,,
13.098,18525,0,0.08,0,,,
13.1037,18531,0,0.07,0,,,
13.1097,18537,0,0.06,0,,,
13.1166,18543,0,0.06,0,,,
13.122,18549,0,0.05,0,,,
13.128,18555,0,0.05,0,,,
13.134,18561,0,0.04,0,,,
13.1402,18567,0,0.04,0,,,
13.146,18573,0,0.03,0,,,
13.1518,18579,0,0.03,0,,,
13.1578,18585,0,0.03,0,,,
13.1642,18591,0,0.02,0,,,
13.1699,18597,0,0.02,0,,,
13.1939,18603,0,0.02,0,,,
13.1946,18609,0,0.02,0,,,
13.1959,18615,0,0.02,0,,,
13.1962,18621,0,0.01,0,,,
13.203,18627,19,1.91,0,,,
13.2054,18633,0,1.72,0,,,
13.212,18639,0,1.55,0,,,
13.2179,18645,0,1.39,0,,,
13.2239,18651,0,1.26,0,,,
13.2297,18657,0,1.13,0,,,
13.2355,18663,0,1.02,0,,,
13.2494,18669,0,0.92,0,,,
13.25,18675,0,0.82,0,3,0,active
13.2631,18681,0,0.74,0,3,0,active
13.264,18687,0,0.67,0,3,0,active
13.2656,18693,0,0.6,0,3,0,active
13.2716,18699,0,0.54,0,3,0,active
13.2776,18705,0,0.49,0,3,0,active
13.2834,18711,0,0.44,0,3,0,active
13.2894,18717,0,0.39,0,3,0,active
13.2954,18723,0,0.35,0,3,0,active
13.3015,18729,0,0.32,0,3,0,active
13.3074,18735,0,0.29,0,3,0,active
13.3135,18741,0,0.26,0,3,0,active
13.3195,18747,0,0.23,0,3,0,active
13.3256,18753,0,0.21,0,3,0,active
13.3314,18759,0,0.19,0,3,0,active
13.338,18765,0,0.17,0,3,0,active
13.3436,18771,0,0.15,0,3,0,active
13.3494,18777,0,0.14,0,3,0,active
13.3678,18783,0,0.12,0,3,0,active
13.3746,18789,0,0.11,0,3,0,active
13.375,18795,6,0.7,0,3,0,active
13.3752,18801,0,0.63,0,3,0,active
13.3819,18807,0,0.57,0,3,0,active
13.3856,18813,0,0.51,0,3,0,active
13.3913,18819,0,0.46,0,3,0,active
13.3974,18825,0,0.41,0,3,0,active
13.4035,18831,0,0.37,0,3,0,active
13.4095,18837,0,0.33,0,3,0,active
13.4157,18843,0,0.3,0,3,0,active
13.4217,18849,0,0.27,0,3,0,active
13.4277,18855,5,0.74,0,3,0,active
13.4345,18861,0,0.67,0,3,0,active
13.4394,18867,0,0.6,0,3,0,active
13.4456,18873,0,0.54,0,3,0,active
13.4514,18879,3,0.79,0,3,0,active
13.4573,18885,0,0.71,0,3,0,active
13.4634,18891,0,0.64,0,3,0,active
13.4694,18897,0,0.57,0,3,0,active
13.4754,18903,0,0.52,0,3,0,active
13.4815,18909,0,0.47,0,3,0,active
13.4875,18915,0,0.42,0,3,0,active
13.4935,18921,0,0.38,0,3,0,active
13.4994,18927,0,0.34,0,3,0,active
13.5055,18933,0,0.31,0,3,0,active
13.5146,18939,0,0.27,0,3,0,active
13.5417,18945,0,0.25,0,3,0,active
13.5423,18951,0,0.22,0,3,0,active
13.5426,18957,0,0.2,0,3,0,active
13.5428,18963,0,0.18,0,3,0,active
13.543,18969,0,0.16,0,3,0,active
13.5487,18975,0,0.15,0,3,0,active
13.5535,18981,0,0.13,0,3,0,active
13.5594,18987,0,0.12,0,3,0,active
13.5655,18993,0,0.11,0,3,0,active
13.5713,18999,0,0.1,0,3,0,active
13.5774,19005,0,0.09,0,3,0,active
13.5834,19011,0,0.08,0,3,0,active
13.5894,19017,0,0.07,0,3,0,active
13.5954,19023,0,0.06,0,3,0,active
13.6014,19029,0,0.06,0,3,0,active
13.6075,19035,0,0.05,0,3,0,active
13.6135,19041,0,0.05,0,3,0,active
13.6197,19047,0,0.04,0,3,0,active
13.6255,19053,0,0.04,0,3,0,active
13.6315,19059,0,0.03,0,3,0,active
13.6375,19065,0,0.03,0,3,0,active
13.6434,19071,0,0.03,0,3,0,active
13.6496,19077,0,0.02,0,3,0,active
13.6554,19083,0,0.02,0,3,0,active
13.676,19089,0,0.02,0,3,0,active
13.6817,19095,0,0.02,0,3,0,active
13.6826,19101,0,0.02,0,3,0,active
13.6831,19107,0,0.01,0,3,0,active
13.6854,19113,0,0.01,0,3,0,active
13.6919,19119,0,0.01,0,3,0,active
13.6974,19125,0,0.01,0,3,0,active
13.7034,19131,0,0.01,0,3,0,active
13.7096,19137,6,0.61,0,3,0,active
13.7155,19143,3,0.85,0,3,0,active
13.7216,19149,0,0.76,0,3,0,active
13.7278,19155,0,0.69,0,3,0,active
13.7334,19161,0,0.62,0,3,0,active
13.7394,19167,0,0.56,0,3,0,active
13.7455,19173,0,0.5,0,3,0,active
13.7515,19179,0,0.45,0,3,0,active
13.7576,19185,5,0.91,0,3,0,active
13.7634,19191,0,0.81,0,3,0,active
13.7694,19197,0,0.73,0,3,0,active
13.7793,19203,0,0.66,0,3,0,active
13.7925,19209,0,0.59,0,3,0,active
13.7938,19215,2,0.73,0,3,0,active
13.7952,19221,0,0.66,0,3,0,active
13.8005,19227,0,0.6,0,3,0,active
13.8054,19233,0,0.54,0,3,0,active
13.821,19239,0,0.48,0,3,0,active
13.8314,19245,0,0.43,0,3,0,active
13.8318,19251,0,0.39,0,3,0,active
13.8323,19257,0,0.35,0,3,0,active
13.8355,19263,0,0.32,0,3,0,active
13.8421,19269,0,0.28,0,3,0,active
13.8475,19275,0,0.26,0,3,0,active
13.8534,19281,0,0.23,0,3,0,active
13.8594,19287,0,0.21,0,3,0,active
13.8654,19293,0,0.19,0,3,0,active
13.8717,19299,0,0.17,0,3,0,active
13.8774,19305,0,0.15,0,3,0,active
13.8834,19311,0,0.14,0,3,0,active
13.8895,19317,0,0.12,0,3,0,active
13.8954,19323,0,0.11,0,3,0,active
13.9014,19329,0,0.1,0,3,0,active
13.9074,19335,0,0.09,0,3,0,active
13.9136,19341,0,0.08,0,3,0,active
13.9194,19347,0,0.07,0,3,0,active
13.9254,19353,0,0.07,0,3,0,active
13.9314,19359,0,0.06,0,3,0,active
13.9376,19365,0,0.05,0,3,0,active
13.9435,19371,0,0.05,0,3,0,active
13.9494,19377,0,0.04,0,3,0,active
13.9554,19383,0,0.04,0,3,0,active
13.9614,19389,0,0.03,0,3,0,active
13.9674,19395,0,0.03,0,3,0,active
13.9736,19401,0,0.03,0,3,0,active
14.0073,19407,0,0.03,0,3,0,active
14.0093,19413,0,0.02,0,3,0,active
14.0105,19419,0,0.02,0,3,0,active
14.0121,19425,0,0.02,0,3,0,active
14.0197,19431,0,0.02,0,3,0,active
14.0202,19437,0,0.01,0,3,0,active
14.0205,19443,0,0.01,0,3,0,active
14.0216,19449,0,0.01,0,3,0,active
14.0277,19455,0,0.01,0,3,0,active
14.0334,19461,0,0.01,0,3,0,active
14.0393,19467,0,0.01,0,3,0,active
14.0502,19473,0,0.01,0,3,0,active
14.0513,19479,0,0.01,0,3,0,active
14.0654,19485,0,0.01,0,3,0,active
14.0671,19491,0,0.01,0,3,0,active
14.0706,19497,0,0.01,0,3,0,active
14.0755,19503,0,0.0,0,3,0,active
14.0816,19509,0,0.0,0,3,0,active
14.0876,19515,0,0.0,0,3,0,active
14.0934,19521,0,0.0,0,3,0,active
14.0995,19527,0,0.0,0,3,0,active
14.1054,19533,0,0.0,0,3,0,active
14.1115,19539,0,0.0,0,3,0,active
14.1174,19545,0,0.0,0,3,0,active
14.1235,19551,0,0.0,0,3,0,active
14.1299,19557,0,0.0,0,3,0,active
14.1358,19563,0,0.0,0,3,0,active
14.1641,19569,0,0.0,0,3,0,active
14.1645,19575,0,0.0,0,3,0,active
14.1647,19581,0,0.0,0,3,0,active
14.1649,19587,0,0.0,0,3,0,active
14.1656,19593,0,0.0,0,3,0,active
14.1721,19599,0,0.0,0,3,0,active
14.1775,19605,0,0.0,0,3,0,active
14.1835,19611,0,0.0,0,3,0,active
14.1895,19617,0,0.0,0,3,0,active
14.1955,19623,0,0.0,0,3,0,active
14.2014,19629,0,0.0,0,3,0,active
14.2076,19635,0,0.0,0,3,0,active
14.2134,19641,0,0.0,0,3,0,active
14.2195,19647,0,0.0,0,3,0,active
14.2253,19653,0,0.0,0,3,0,active
14.2321,19659,0,0.0,0,3,0,active
14.2374,19665,0,0.0,0,3,0,active
14.2434,19671,0,0.0,0,3,0,active
14.2494,19677,0,0.0,0,3,0,active
14.2554,19683,0,0.0,0,3,0,active
14.2614,19689,0,0.0,0,3,0,active
14.2674,19695,17,1.7,0,3,0,active
14.2733,19701,0,1.53,0,3,0,active
14.2794,19707,0,1.38,0,3,0,active
14.2855,19713,0,1.24,0,3,0,active
14.2915,19719,16,2.72,0,3,0,active
14.3077,19725,0,2.44,0,3,0,active
14.3214,19731,0,2.2,0,3,0,active
14.3215,19737,0,1.98,0,3,0,active
14.3216,19743,4,2.18,0,3,0,active
14.3217,19749,0,1.96,0,3,0,active
14.3362,19755,0,1.77,0,3,0,active
14.3379,19761,0,1.59,0,3,0,active
14.3396,19767,0,1.43,0,3,0,active
14.3463,19773,0,1.29,0,3,0,active
14.3517,19779,0,1.16,0,3,0,active
14.3574,19785,0,1.04,0,3,0,active
14.3634,19791,0,0.94,0,3,0,active
14.3694,19797,0,0.85,0,3,0,active
14.3755,19803,0,0.76,0,3,0,active
14.3816,19809,0,0.68,0,3,0,active
14.3874,19815,0,0.62,0,3,0,active
14.3933,19821,0,0.55,0,3,0,active
14.3994,19827,0,0.5,0,3,0,active
14.4054,19833,0,0.45,0,3,0,active
14.4114,19839,0,0.4,0,3,0,active
14.4176,19845,0,0.36,0,3,0,active
14.4234,19851,0,0.33,0,3,0,active
14.4294,19857,0,0.29,0,3,0,active
14.4354,19863,0,0.27,0,3,0,active
14.4414,19869,0,0.24,0,3,0,active
14.4703,19875,0,0.21,0,3,0,active
14.4707,19881,0,0.19,0,3,0,active
14.4712,19887,0,0.17,0,3,0,active
14.4717,19893,0,0.16,0,3,0,active
14.472,19899,0,0.14,0,3,0,active
14.479,19905,13,1.43,0,3,0,active
14.4834,19911,0,1.28,0,3,0,active
14.4895,19917,0,1.16,0,3,0,active
14.4955,19923,0,1.04,0,3,0,active
14.5016,19929,0,0.94,0,3,0,active
14.5078,19935,0,0.84,0,3,0,active
14.5136,19941,0,0.76,0,3,0,active
14.5194,19947,0,0.68,0,3,0,active
14.5255,19953,0,0.61,0,3,0,active
14.5315,19959,0,0.55,0,3,0,active
14.5374,19965,0,0.5,0,3,0,active
14.5435,19971,0,0.45,0,3,0,active
14.5494,19977,0,0.4,0,3,0,active
14.5554,19983,0,0.36,0,3,0,active
14.5614,19989,0,0.33,0,3,0,active
14.5674,19995,0,0.29,0,3,0,active
14.5737,20001,0,0.26,0,3,0,active
14.5797,20007,0,0.24,0,3,0,active
14.5854,20013,0,0.21,0,3,0,active
14.5953,20019,0,0.19,0,3,0,active
14.6148,20025,0,0.17,0,3,0,active
14.6176,20031,0,0.16,0,3,0,active
14.6178,20037,0,0.14,0,3,0,active
14.6181,20043,0,0.13,0,3,0,active
14.6233,20049,0,0.11,0,3,0,active
14.6274,20055,0,0.1,0,3,0,active
14.6336,20061,0,0.09,0,3,0,active
14.6393,20067,0,0.08,0,3,0,active
14.6456,20073,0,0.07,0,3,0,active
14.6514,20079,0,0.07,0,3,0,active
14.6573,20085,0,0.06,0,3,0,active
14.6634,20091,0,0.05,0,3,0,active
14.6694,20097,0,0.05,0,3,0,active
14.6756,20103,0,0.04,0,3,0,active
14.6814,20109,0,0.04,0,3,0,active
14.6874,20115,0,0.04,0,3,0,active
14.6941,20121,0,0.03,0,3,0,active
14.6994,20127,0,0.03,0,3,0,active
14.7053,20133,0,0.03,0,3,0,active
14.7116,20139,0,0.02,0,3,0,active
14.7174,20145,0,0.02,0,3,0,active
14.7234,20151,0,0.02,0,3,0,active
14.7293,20157,0,0.02,0,3,0,active
14.7353,20163,0,0.02,0,3,0,active
14.7414,20169,0,0.01,0,3,0,active
14.7475,20175,0,0.01,0,3,0,active
14.7536,20181,0,0.01,0,3,0,active
14.7593,20187,0,0.01,0,3,0,active
14.7826,20193,0,0.01,0,3,0,active
14.7868,20199,0,0.01,0,3,0,active
14.787,20205,0,0.01,0,3,0,active
14.7872,20211,0,0.01,0,3,0,active
14.7899,20217,0,0.01,0,3,0,active
14.7965,20223,0,0.01,0,3,0,active
14.8014,20229,0,0.0,0,3,0,active
14.8075,20235,10,1.0,0,3,0,active
14.8134,20241,0,0.9,0,3,0,active
14.8193,20247,0,0.81,0,3,0,active
14.8254,20253,0,0.73,0,3,0,active
14.8315,20259,0,0.66,0,3,0,active
14.8374,20265,2,0.79,0,3,0,active
14.8434,20271,0,0.71,0,3,0,active
14.8494,20277,0,0.64,0,3,0,active
14.8554,20283,0,0.58,0,3,0,active
14.8613,20289,0,0.52,0,3,0,active
14.8714,20295,0,0.47,0,3,0,active
14.8843,20301,0,0.42,0,3,0,active
14.8861,20307,0,0.38,0,3,0,active
14.8877,20313,0,0.34,0,3,0,active
14.8916,20319,0,0.31,0,3,0,active
14.8973,20325,0,0.28,0,3,0,active
14.9034,20331,0,0.25,0,3,0,active
14.9094,20337,0,0.22,0,3,0,active
14.9154,20343,0,0.2,0,3,0,active
14.9215,20349,0,0.18,0,3,0,active
14.9278,20355,0,0.16,0,3,0,active
14.9507,20361,0,0.15,0,3,0,active
14.9512,20367,0,0.13,0,3,0,active
14.9515,20373,0,0.12,0,3,0,active
14.9516,20379,0,0.11,0,3,0,active
14.9593,20385,0,0.1,0,3,0,active
14.9634,20391,1,0.19,0,3,0,active
14.9694,20397,0,0.17,0,3,0,active
14.9754,20403,0,0.15,0,3,0,active
14.9817,20409,0,0.14,0,3,0,active
14.9873,20415,0,0.12,0,3,0,active
14.9933,20421,0,0.11,0,3,0,active
14.9997,20427,0,0.1,0,3,0,active
15.0054,20433,0,0.09,0,3,0,active
15.0113,20439,0,0.08,0,3,0,active
15.0174,20445,0,0.07,0,3,0,active
15.0234,20451,0,0.07,0,3,0,active
15.0296,20457,0,0.06,0,3,0,active
15.0353,20463,0,0.05,0,3,0,active
15.0413,20469,0,0.05,0,3,0,active
15.0474,20475,0,0.04,0,3,0,active
15.0535,20481,0,0.04,0,3,0,active
15.0593,20487,0,0.03,0,3,0,active
15.0657,20493,0,0.03,0,3,0,active
15.0714,20499,0,0.03,0,3,0,active
15.0866,20505,0,0.03,0,3,0,active
15.0952,20511,0,0.02,0,3,0,active
15.0961,20517,0,0.02,0,3,0,active
15.0963,20523,0,0.02,0,3,0,active
15.1025,20529,0,0.02,0,3,0,active
15.1074,20535,0,0.01,0,3,0,active
15.1133,20541,0,0.01,0,3,0,active
15.1195,20547,0,0.01,0,3,0,active
15.1254,20553,0,0.01,0,3,0,active
15.1314,20559,0,0.01,0,3,0,active
15.1374,20565,0,0.01,0,3,0,active
15.1518,20571,0,0.01,0,3,0,active
15.1521,20577,0,0.01,0,3,0,active
15.164,20583,0,0.01,0,3,0,active
15.1652,20589,0,0.01,0,3,0,active
15.1681,20595,0,0.01,0,3,0,active
15.1741,20601,0,0.0,0,3,0,active
15.1797,20607,0,0.0,0,3,0,active
15.1855,20613,0,0.0,0,3,0,active
15.1914,20619,0,0.0,0,3,0,active
15.1976,20625,0,0.0,0,3,0,active
15.2035,20631,0,0.0,0,3,0,active
15.2215,20637,7,0.7,0,3,0,active
15.2307,20643,0,0.63,0,3,0,active
15.2328,20649,0,0.57,0,3,0,active
15.2331,20655,0,0.51,0,3,0,active
15.2333,20661,0,0.46,0,3,0,active
15.2415,20667,0,0.41,0,3,0,active
15.2454,20673,0,0.37,0,3,0,active
15.2514,20679,0,0.34,0,,,
15.2573,20685,0,0.3,0,,,
15.2636,20691,0,0.27,0,,,
15.2696,20697,0,0.24,0,,,
15.2754,20703,0,0.22,0,,,
15.2815,20709,0,0.2,0,,,
15.2875,20715,0,0.18,0,,,
15.2934,20721,0,0.16,0,,,
15.2994,20727,0,0.14,0,,,
15.3053,20733,0,0.13,0,,,
15.3114,20739,0,0.12,0,,,
15.3193,20745,0,0.11,0,,,
15.3235,20751,0,0.09,0,,,
15.3293,20757,0,0.09,0,,,
15.3354,20763,0,0.08,0,,,
15.3415,20769,0,0.07,0,,,
15.3476,20775,0,0.06,0,,,
15.3698,20781,0,0.06,0,,,
15.372,20787,0,0.05,0,,,
15.3723,20793,0,0.05,0,,,
15.3725,20799,0,0.04,0,,,
15.38,20805,0,0.04,0,,,
15.3834,20811,0,0.03,0,,,
15.3894,20817,0,0.03,0,,,
15.3953,20823,0,0.03,0,,,
15.4013,20829,0,0.02,0,,,
15.4074,20835,0,0.02,0,,,
15.4134,20841,0,0.02,0,,,
15.4194,20847,0,0.02,0,,,
15.4253,20853,0,0.02,0,,,
15.4312,20859,0,0.01,0,,,
15.4423,20865,0,0.01,0,,,
15.4432,20871,0,0.01,0,,,
15.4553,20877,0,0.01,0,,,
15.4572,20883,0,0.01,0,,,
15.4623,20889,0,0.01,0,,,
15.4674,20895,0,0.01,0,,,
15.4735,20901,0,0.01,0,,,
15.4795,20907,0,0.01,0,,,
15.5026,20913,0,0.01,0,,,
15.5078,20919,0,0.0,0,,,
15.5086,20925,0,0.0,0,,,
15.509,20931,0,0.0,0,,,
15.5094,20937,0,0.0,0,,,
15.5168,20943,0,0.0,0,,,
15.5214,20949,0,0.0,0,,,
15.5274,20955,0,0.0,0,,,
15.5334,20961,0,0.0,0,,,
15.5394,20967,0,0.0,0,,,
15.5453,20973,0,0.0,0,,,
15.5517,20979,0,0.0,0,,,
15.5573,20985,0,0.0,0,,,
15.5634,20991,0,0.0,0,,,
15.5694,20997,0,0.0,0,,,
15.5753,21003,0,0.0,0,,,
15.5816,21009,0,0.0,0,,,
15.5874,21015,0,0.0,0,,,
15.5937,21021,0,0.0,0,,,
15.5994,21027,0,0.0,0,,,
15.6053,21033,0,0.0,0,,,
15.6115,21039,0,0.0,0,,,
15.6174,21045,0,0.0,0,,,
15.6233,21051,0,0.0,0,,,
15.6295,21057,0,0.0,0,,,
15.6475,21063,0,0.0,0,,,
15.6569,21069,0,0.0,0,,,
15.6595,21075,0,0.0,0,,,
15.6598,21081,0,0.0,0,,,
15.66,21087,0,0.0,0,,,
15.6669,21093,0,0.0,0,,,
15.6715,21099,0,0.0,0,,,
15.6775,21105,0,0.0,0,,,
15.6834,21111,0,0.0,0,,,
15.6894,21117,0,0.0,0,,,
15.6959,21123,0,0.0,0,,,
15.7014,21129,0,0.0,0,,,
15.7074,21135,0,0.0,0,,,
15.7135,21141,0,0.0,0,,,
15.7193,21147,0,0.0,0,,,
15.7254,21153,0,0.0,0,,,
15.7314,21159,0,0.0,0,,,
15.7405,21165,0,0.0,0,,,
15.754,21171,4,0.4,0,4,0,active
15.7551,21177,0,0.36,0,4,0,active
15.7566,21183,0,0.32,0,4,0,active
15.7618,21189,0,0.29,0,4,0,active
15.7674,21195,0,0.26,0,4,0,active
15.7735,21201,0,0.24,0,4,0,active
15.7794,21207,0,0.21,0,4,0,active
15.7985,21213,0,0.19,0,4,0,active
15.8045,21219,0,0.17,0,4,0,active
15.8072,21225,0,0.15,0,4,0,active
15.8075,21231,0,0.14,0,4,0,active
15.8094,21237,0,0.13,0,4,0,active
15.8161,21243,0,0.11,0,4,0,active
15.8214,21249,0,0.1,0,4,0,active
15.8273,21255,0,0.09,0,4,0,active
15.8333,21261,0,0.08,0,4,0,active
15.8393,21267,0,0.07,0,4,0,active
15.8454,21273,0,0.07,0,4,0,active
15.8514,21279,0,0.06,0,4,0,active
15.8574,21285,0,0.05,0,4,0,active
15.8634,21291,0,0.05,0,4,0,active
15.8696,21297,0,0.04,0,4,0,active
15.8758,21303,0,0.04,0,4,0,active
15.8814,21309,0,0.04,0,4,0,active
15.8874,21315,0,0.03,0,4,0,active
15.8934,21321,0,0.03,0,4,0,active
15.8994,21327,0,0.03,0,4,0,active
15.9054,21333,0,0.02,0,4,0,active
15.9113,21339,0,0.02,0,4,0,active
15.9173,21345,0,0.02,0,4,0,active
15.9234,21351,10,1.02,0,4,0,active
15.9293,21357,0,0.92,0,4,0,active
15.9353,21363,0,0.82,0,4,0,active
15.9591,21369,0,0.74,0,4,0,active
15.9594,21375,1,0.77,0,4,0,active
15.9596,21381,0,0.69,0,4,0,active
15.9601,21387,0,0.62,0,4,0,active
15.9679,21393,0,0.56,0,4,0,active
15.9713,21399,0,0.5,0,4,0,active
15.9777,21405,0,0.45,0,4,0,active
15.9834,21411,0,0.41,0,4,0,active
15.9893,21417,0,0.37,0,4,0,active
15.9955,21423,0,0.33,0,4,0,active
16.0013,21429,0,0.3,0,4,0,active
16.0073,21435,0,0.27,0,4,0,active
16.0133,21441,0,0.24,0,4,0,active
16.0193,21447,0,0.22,0,4,0,active
16.0295,21453,0,0.2,0,4,0,active
16.0424,21459,0,0.18,0,4,0,active
16.0449,21465,0,0.16,0,4,0,active
16.0453,21471,0,0.14,0,4,0,active
16.0509,21477,0,0.13,0,4,0,active
16.0554,21483,0,0.12,0,4,0,active
16.0613,21489,0,0.1,0,4,0,active
16.0673,21495,0,0.09,0,4,0,active
16.0734,21501,0,0.08,0,4,0,active
16.0796,21507,0,0.08,0,4,0,active
16.0854,21513,0,0.07,0,4,0,active
16.098,21519,0,0.06,0,4,0,active
16.1114,21525,0,0.06,0,4,0,active
16.1118,21531,0,0.05,0,4,0,active
16.1121,21537,0,0.04,0,4,0,active
16.1154,21543,0,0.04,0,4,0,active
16.122,21549,0,0.04,0,4,0,active
16.1277,21555,0,0.03,0,4,0,active
16.1333,21561,0,0.03,0,4,0,active
16.1394,21567,0,0.03,0,4,0,active
16.1473,21573,0,0.02,0,4,0,active
16.1514,21579,0,0.02,0,4,0,active
16.1573,21585,0,0.02,0,4,0,active
16.1633,21591,0,0.02,0,4,0,active
16.1694,21597,0,0.02,0,4,0,active
16.1754,21603,0,0.01,0,4,0,active
16.1814,21609,0,0.01,0,4,0,active
16.1873,21615,0,0.01,0,4,0,active
16.1935,21621,0,0.01,0,4,0,active
16.1994,21627,0,0.01,0,4,0,active
16.2053,21633,0,0.01,0,4,0,active
16.2112,21639,0,0.01,0,4,0,active
16.2174,21645,0,0.01,0,4,0,active
16.2234,21651,0,0.01,0,4,0,active
16.2532,21657,3,0.31,0,4,0,active
16.2539,21663,0,0.27,0,4,0,active
16.2544,21669,0,0.25,0,4,0,active
16.2547,21675,0,0.22,0,4,0,active
16.2549,21681,18,2.0,0,4,0,active
16.2617,21687,0,1.8,0,4,0,active
16.2654,21693,0,1.62,0,4,0,active
16.2715,21699,0,1.46,0,4,0,active
16.2774,21705,0,1.31,0,4,0,active
16.2833,21711,0,1.18,0,4,0,active
16.2894,21717,0,1.06,0,4,0,active
16.2955,21723,0,0.96,0,4,0,active
16.3017,21729,0,0.86,0,4,0,active
16.3074,21735,0,0.77,0,4,0,active
16.3133,21741,0,0.7,0,4,0,active
16.3237,21747,0,0.63,0,4,0,active
16.339,21753,0,0.56,0,4,0,active
16.3406,21759,0,0.51,0,4,0,active
16.3415,21765,0,0.46,0,4,0,active
16.345,21771,0,0.41,0,4,0,active
16.3493,21777,0,0.37,0,4,0,active
16.3553,21783,0,0.33,0,4,0,active
16.3614,21789,0,0.3,0,4,0,active
16.3673,21795,0,0.27,0,4,0,active
16.3734,21801,0,0.24,0,4,0,active
16.3825,21807,0,0.22,0,4,0,active
16.3928,21813,0,0.2,0,4,0,active
16.4008,21819,0,0.18,0,4,0,active
16.4011,21825,0,0.16,0,4,0,active
16.4034,21831,0,0.14,0,4,0,active
16.4102,21837,0,0.13,0,4,0,active
16.4154,21843,0,0.12,0,4,0,active
16.4214,21849,0,0.1,0,4,0,active
16.4273,21855,0,0.09,0,4,0,active
16.4333,21861,0,0.08,0,4,0,active
16.4394,21867,0,0.08,0,4,0,active
16.4453,21873,0,0.07,0,4,0,active
16.4513,21879,0,0.06,0,4,0,active
16.4574,21885,0,0.06,0,4,0,active
16.4634,21891,0,0.05,0,4,0,active
16.4693,21897,0,0.05,0,4,0,active
16.4753,21903,0,0.04,0,4,0,active
16.4814,21909,0,0.04,0,4,0,active
16.4875,21915,0,0.03,0,4,0,active
16.4934,21921,0,0.03,0,4,0,active
16.4993,21927,0,0.03,0,4,0,active
16.5053,21933,0,0.02,0,4,0,active
16.5113,21939,0,0.02,0,4,0,active
16.5173,21945,0,0.02,0,4,0,active
16.5234,21951,0,0.02,0,4,0,active
16.5294,21957,0,0.02,0,4,0,active
16.5354,21963,0,0.01,0,4,0,active
16.5413,21969,0,0.01,0,4,0,active
16.5485,21975,0,0.01,0,4,0,active
16.5675,21981,0,0.01,0,4,0,active
16.5683,21987,0,0.01,0,4,0,active
16.569,21993,0,0.01,0,4,0,active
16.5714,21999,0,0.01,0,4,0,active
16.5783,22005,16,1.61,0,4,0,active
16.5835,22011,10,2.45,0,4,0,active
16.5893,22017,0,2.2,0,4,0,active
16.5953,22023,0,1.98,0,4,0,active
16.6015,22029,0,1.78,0,4,0,active
16.6074,22035,23,3.9,0,4,0,active
16.6133,22041,0,3.51,0,4,0,active
16.6248,22047,0,3.16,0,4,0,active
16.6252,22053,0,2.85,0,4,0,active
16.6382,22059,0,2.56,0,4,0,active
16.639,22065,0,2.31,0,4,0,active
16.6456,22071,0,2.08,0,4,0,active
16.6496,22077,0,1.87,0,4,0,active
16.6554,22083,0,1.68,0,4,0,active
16.6614,22089,0,1.51,0,4,0,active
16.6673,22095,0,1.36,0,4,0,active
16.6734,22101,0,1.23,0,4,0,active
16.6794,22107,0,1.1,0,4,0,active
16.6856,22113,0,0.99,0,4,0,active
16.6913,22119,0,0.89,0,4,0,active
16.7198,22125,0,0.8,0,4,0,active
16.7204,22131,0,0.72,0,4,0,active
16.7207,22137,0,0.65,0,4,0,active
16.7212,22143,0,0.59,0,4,0,active
16.7214,22149,0,0.53,0,4,0,active
16.7285,22155,0,0.47,0,4,0,active
16.7333,22161,0,0.43,0,4,0,active
16.7393,22167,0,0.38,0,4,0,active
16.7455,22173,20,2.35,0,4,0,active
16.7518,22179,0,2.11,0,4,0,active
16.7574,22185,0,1.9,0,4,0,active
16.7637,22191,0,1.71,0,4,0,active
16.7693,22197,0,1.54,0,4,0,active
16.7752,22203,0,1.39,0,4,0,active
16.7814,22209,0,1.25,0,4,0,active
16.7873,22215,0,1.12,0,4,0,active
16.7933,22221,0,1.01,0,4,0,active
16.7996,22227,0,0.91,0,4,0,active
16.8054,22233,7,1.52,0,4,0,active
16.8113,22239,0,1.37,0,4,0,active
16.8173,22245,0,1.23,0,4,0,active
16.8233,22251,0,1.11,0,4,0,active
16.8293,22257,0,1.0,0,4,0,active
16.8356,22263,0,0.9,0,4,0,active
16.8531,22269,0,0.81,0,4,0,active
16.8578,22275,0,0.73,0,4,0,active
16.8633,22281,0,0.65,0,4,0,active
16.8636,22287,0,0.59,0,4,0,active
16.8654,22293,0,0.53,0,4,0,active
16.8727,22299,0,0.48,0,4,0,active
16.8773,22305,0,0.43,0,4,0,active
16.8833,22311,0,0.39,0,4,0,active
16.8893,22317,0,0.35,0,4,0,active
16.8954,22323,0,0.31,0,4,0,active
16.9013,22329,0,0.28,0,4,0,active
16.9073,22335,0,0.25,0,4,0,active
16.9135,22341,0,0.23,0,4,0,active
16.9192,22347,0,0.21,0,4,0,active
16.929,22353,0,0.18,0,4,0,active
16.9419,22359,0,0.17,0,4,0,active
16.9438,22365,0,0.15,0,4,0,active
16.944,22371,0,0.13,0,4,0,active
16.9496,22377,1,0.22,0,4,0,active
16.9553,22383,0,0.2,0,4,0,active
16.9613,22389,0,0.18,0,4,0,active
16.9676,22395,0,0.16,0,4,0,active
16.9734,22401,0,0.15,0,4,0,active
16.9793,22407,0,0.13,0,4,0,active
16.9855,22413,0,0.12,0,4,0,active
16.9914,22419,0,0.11,0,4,0,active
16.9973,22425,0,0.1,0,4,0,active
17.0129,22431,0,0.09,0,4,0,active
17.0236,22437,0,0.08,0,4,0,active
17.0243,22443,0,0.07,0,4,0,active
17.0245,22449,0,0.06,0,4,0,active
17.0273,22455,0,0.06,0,4,0,active
17.0341,22461,0,0.05,0,4,0,active
17.0394,22467,0,0.05,0,4,0,active
17.0454,22473,0,0.04,0,4,0,active
17.0515,22479,0,0.04,0,4,0,active
17.0577,22485,15,1.53,0,4,0,active
17.0633,22491,0,1.38,0,4,0,active
17.0694,22497,0,1.24,0,4,0,active
17.0753,22503,0,1.12,0,4,0,active
17.0813,22509,0,1.01,0,4,0,active
17.0873,22515,0,0.91,0,4,0,active
17.0933,22521,0,0.81,0,4,0,active
17.0993,22527,0,0.73,0,4,0,active
17.1054,22533,0,0.66,0,4,0,active
17.1114,22539,0,0.59,0,4,0,active
17.1173,22545,0,0.53,0,4,0,active
17.1233,22551,0,0.48,0,4,0,active
17.1297,22557,0,0.43,0,4,0,active
17.1354,22563,0,0.39,0,4,0,active
17.1413,22569,0,0.35,0,4,0,active
17.1473,22575,0,0.32,0,4,0,active
17.1535,22581,0,0.28,0,4,0,active
17.1594,22587,0,0.26,0,4,0,active
17.1654,22593,0,0.23,0,4,0,active
17.1714,22599,9,1.11,0,4,0,active
17.185,22605,0,1.0,0,4,0,active
17.1888,22611,0,0.9,0,4,0,active
17.1924,22617,0,0.81,0,4,0,active
17.1977,22623,0,0.73,0,4,0,active
17.2014,22629,0,0.65,0,4,0,active
17.2079,22635,0,0.59,0,4,0,active
17.2133,22641,0,0.53,0,4,0,active
17.2193,22647,0,0.48,0,4,0,active
17.2318,22653,0,0.43,0,4,0,active
17.232,22659,0,0.39,0,4,0,active
17.245,22665,0,0.35,0,4,0,active
17.2472,22671,0,0.31,0,4,0,active
17.2504,22677,0,0.28,0,4,0,active
17.257,22683,0,0.25,0,4,0,active
17.2615,22689,0,0.23,0,4,0,active
17.2673,22695,0,0.21,0,4,0,active
17.2733,22701,0,0.18,0,4,0,active
17.2794,22707,0,0.17,0,4,0,active
17.2854,22713,0,0.15,0,4,0,active
17.2913,22719,0,0.13,0,4,0,active
17.2974,22725,0,0.12,0,4,0,active
17.3036,22731,0,0.11,0,4,0,active
17.3093,22737,0,0.1,0,4,0,active
17.3154,22743,10,1.09,0,4,0,active
17.3213,22749,0,0.98,0,4,0,active
17.3273,22755,0,0.88,0,4,0,active
17.3333,22761,5,1.29,0,4,0,active
17.3474,22767,0,1.16,0,4,0,active
17.3515,22773,0,1.05,0,4,0,active
17.3592,22779,0,0.94,0,4,0,active
17.3629,22785,0,0.85,0,4,0,active
17.3636,22791,0,0.76,0,4,0,active
17.37,22797,0,0.69,0,4,0,active
17.3754,22803,0,0.62,0,4,0,active
17.3815,22809,0,0.56,0,4,0,active
17.3873,22815,0,0.5,0,4,0,active
17.3933,22821,0,0.45,0,4,0,active
17.3994,22827,0,0.41,0,4,0,active
17.4056,22833,0,0.37,0,4,0,active
17.4114,22839,0,0.33,0,4,0,active
17.4174,22845,0,0.3,0,4,0,active
17.4234,22851,0,0.27,0,4,0,active
17.4295,22857,0,0.24,0,4,0,active
17.4352,22863,0,0.22,0,4,0,active
17.442,22869,0,0.19,0,4,0,active
17.4474,22875,0,0.17,0,4,0,active
17.4533,22881,0,0.16,0,4,0,active
17.4594,22887,0,0.14,0,4,0,active
17.4652,22893,0,0.13,0,4,0,active
17.4712,22899,0,0.11,0,4,0,active
17.4774,22905,0,0.1,0,4,0,active
17.4836,22911,0,0.09,0,4,0,active
17.5145,22917,0,0.08,0,4,0,active
17.5183,22923,0,0.08,0,4,0,active
17.5188,22929,0,0.07,0,4,0,active
17.519,22935,0,0.06,0,4,0,active
17.5192,22941,0,0.05,0,4,0,active
17.5194,22947,13,1.35,0,4,0,active
17.5323,22953,0,1.21,0,4,0,active
17.5325,22959,0,1.09,0,4,0,active
17.5451,22965,0,0.98,0,4,0,active
17.5466,22971,0,0.89,0,4,0,active
17.5507,22977,0,0.8,0,4,0,active
17.5552,22983,0,0.72,0,4,0,active
17.5613,22989,0,0.65,0,4,0,active
17.5673,22995,0,0.58,0,4,0,active
17.5734,23001,0,0.52,0,4,0,active
17.5794,23007,0,0.47,0,4,0,active
17.5855,23013,0,0.42,0,4,0,active
17.5912,23019,0,0.38,0,4,0,active
17.5975,23025,0,0.34,0,4,0,active
17.6032,23031,0,0.31,0,4,0,active
17.6093,23037,0,0.28,0,4,0,active
17.6154,23043,0,0.25,0,4,0,active
17.6213,23049,0,0.23,0,4,0,active
17.6273,23055,0,0.2,0,4,0,active
17.6333,23061,0,0.18,0,4,0,active
17.6394,23067,12,1.36,0,4,0,active
17.6452,23073,0,1.23,0,4,0,active
17.657,23079,0,1.1,0,4,0,active
17.6723,23085,0,0.99,0,4,0,active
17.6744,23091,0,0.89,0,4,0,active
17.6753,23097,16,2.41,0,4,0,active
17.6756,23103,0,2.16,0,4,0,active
17.6821,23109,0,1.95,0,4,0,active
17.6873,23115,0,1.75,0,4,0,active
17.6932,23121,0,1.58,0,4,0,active
17.6995,23127,0,1.42,0,4,0,active
17.7053,23133,0,1.28,0,4,0,active
17.7113,23139,0,1.15,0,4,0,active
17.7173,23145,0,1.04,0,4,0,active
17.7233,23151,0,0.93,0,4,0,active
17.7292,23157,0,0.84,0,4,0,active
17.7354,23163,0,0.75,0,4,0,active
17.7413,23169,0,0.68,0,,,
17.7477,23175,0,0.61,0,,,
17.7533,23181,0,0.55,0,,,
17.7594,23187,0,0.5,0,,,
17.7657,23193,0,0.45,0,,,
17.7713,23199,0,0.4,0,,,
17.7775,23205,0,0.36,0,,,
17.7834,23211,0,0.32,0,,,
17.7895,23217,0,0.29,0,,,
17.7953,23223,0,0.26,0,,,
17.8012,23229,0,0.24,0,,,
17.8102,23235,0,0.21,0,,,
17.8264,23241,0,0.19,0,,,
17.8267,23247,0,0.17,0,,,
17.8269,23253,0,0.16,0,,,
17.8325,23259,0,0.14,0,,,
17.8422,23265,0,0.13,0,,,
17.8432,23271,0,0.11,0,5,0,active
17.8563,23277,0,0.1,0,5,0,active
17.8577,23283,0,0.09,0,5,0,active
17.8613,23289,0,0.08,0,5,0,active
17.8677,23295,0,0.07,0,5,0,active
17.8733,23301,0,0.07,0,5,0,active
17.8793,23307,0,0.06,0,5,0,active
17.8856,23313,0,0.05,0,5,0,active
17.8913,23319,0,0.05,0,5,0,active
17.8973,23325,0,0.04,0,5,0,active
17.9033,23331,0,0.04,0,5,0,active
17.9094,23337,0,0.04,0,5,0,active
17.916,23343,0,0.03,0,5,0,active
17.9213,23349,0,0.03,0,5,0,active
17.9272,23355,0,0.03,0,5,0,active
17.9332,23361,0,0.02,0,5,0,active
17.9393,23367,0,0.02,0,5,0,active
17.9482,23373,0,0.02,0,5,0,active
17.9548,23379,0,0.02,0,5,0,active
17.9659,23385,0,0.02,0,5,0,active
17.9662,23391,0,0.01,0,5,0,active
17.9696,23397,0,0.01,0,5,0,active
17.976,23403,0,0.01,0,5,0,active
17.9813,23409,0,0.01,0,5,0,active
17.9872,23415,0,0.01,0,5,0,active
17.9933,23421,0,0.01,0,5,0,active
18.001,23427,0,0.01,0,5,0,active
18.0054,23433,0,0.01,0,5,0,active
18.0113,23439,0,0.01,0,5,0,active
18.0174,23445,0,0.01,0,5,0,active
18.0234,23451,16,1.6,0,5,0,active
18.0294,23457,0,1.44,0,5,0,active
18.0354,23463,0,1.3,0,5,0,active
18.0414,23469,0,1.17,0,5,0,active
18.0475,23475,0,1.05,0,5,0,active
18.0532,23481,0,0.95,0,5,0,active
18.0593,23487,0,0.85,0,5,0,active
18.0653,23493,0,0.77,0,5,0,active
18.0714,23499,0,0.69,0,5,0,active
18.0772,23505,0,0.62,0,5,0,active
18.0833,23511,0,0.56,0,5,0,active
18.0893,23517,0,0.5,0,5,0,active
18.0952,23523,0,0.45,0,5,0,active
18.107,23529,0,0.41,0,5,0,active
18.1202,23535,0,0.37,0,5,0,active
18.1205,23541,0,0.33,0,5,0,active
18.1207,23547,0,0.3,0,5,0,active
18.129,23553,0,0.27,0,5,0,active
18.1314,23559,0,0.24,0,5,0,active
18.1373,23565,0,0.22,0,5,0,active
18.1433,23571,0,0.2,0,5,0,active
18.1493,23577,0,0.18,0,5,0,active
18.1607,23583,0,0.16,0,5,0,active
18.1622,23589,0,0.14,0,5,0,active
18.1753,23595,0,0.13,0,5,0,active
18.1771,23601,0,0.12,0,5,0,active
18.1805,23607,1,0.2,0,5,0,active
18.1866,23613,0,0.18,0,5,0,active
18.1913,23619,0,0.16,0,5,0,active
18.1973,23625,0,0.15,0,5,0,active
18.2033,23631,0,0.13,0,5,0,active
18.2092,23637,1,0.22,0,5,0,active
18.2154,23643,0,0.2,0,5,0,active
18.2214,23649,0,0.18,0,5,0,active
18.2272,23655,0,0.16,0,5,0,active
18.2333,23661,0,0.14,0,5,0,active
18.2392,23667,0,0.13,0,5,0,active
18.2455,23673,0,0.12,0,5,0,active
18.2514,23679,0,0.11,0,5,0,active
18.2638,23685,0,0.09,0,5,0,active
18.2747,23691,0,0.09,0,5,0,active
18.2778,23697,0,0.08,0,5,0,active
18.278,23703,0,0.07,0,5,0,active
18.2814,23709,0,0.06,0,5,0,active
18.2884,23715,0,0.06,0,5,0,active
18.2932,23721,0,0.05,0,5,0,active
18.2993,23727,0,0.05,0,5,0,active
18.3053,23733,0,0.04,0,5,0,active
18.3115,23739,0,0.04,0,5,0,active
18.3173,23745,0,0.03,0,5,0,active
18.3234,23751,0,0.03,0,5,0,active
18.3295,23757,0,0.03,0,5,0,active
18.3353,23763,0,0.02,0,5,0,active
18.3413,23769,0,0.02,0,5,0,active
18.3473,23775,0,0.02,0,5,0,active
18.3534,23781,0,0.02,0,5,0,active
18.3595,23787,0,0.02,0,5,0,active
18.3653,23793,0,0.01,0,5,0,active
18.3713,23799,0,0.01,0,5,0,active
18.3773,23805,0,0.01,0,5,0,active
18.3833,23811,0,0.01,0,5,0,active
18.3893,23817,0,0.01,0,5,0,active
18.3956,23823,6,0.61,0,5,0,active
18.4012,23829,0,0.55,0,5,0,active
18.4073,23835,7,1.19,0,5,0,active
18.4182,23841,0,1.07,0,5,0,active
18.4341,23847,0,0.97,0,5,0,active
18.4344,23853,0,0.87,0,5,0,active
18.4346,23859,0,0.78,0,5,0,active
18.4375,23865,0,0.7,0,5,0,active
18.4439,23871,0,0.63,0,5,0,active
18.4495,23877,0,0.57,0,5,0,active
18.4554,23883,0,0.51,0,5,0,active
18.4612,23889,0,0.46,0,5,0,active
18.4673,23895,0,0.42,0,5,0,active
18.4805,23901,0,0.37,0,5,0,active
18.4807,23907,0,0.34,0,5,0,active
18.4932,23913,0,0.3,0,5,0,active
18.4943,23919,0,0.27,0,5,0,active
18.4976,23925,0,0.25,0,5,0,active
18.5037,23931,0,0.22,0,5,0,active
18.5092,23937,0,0.2,0,5,0,active
18.5161,23943,0,0.18,0,5,0,active
18.5217,23949,0,0.16,0,5,0,active
18.5273,23955,0,0.15,0,5,0,active
18.5332,23961,0,0.13,0,5,0,active
18.5393,23967,0,0.12,0,5,0,active
18.5454,23973,0,0.11,0,5,0,active
18.5583,23979,0,0.1,0,5,0,active
18.5699,23985,0,0.09,0,5,0,active
18.5702,23991,0,0.08,0,5,0,active
18.5707,23997,0,0.07,0,5,0,active
18.5764,24003,0,0.06,0,5,0,active
18.5812,24009,0,0.06,0,5,0,active
18.5873,24015,0,0.05,0,5,0,active
18.5933,24021,0,0.05,0,5,0,active
18.5994,24027,0,0.04,0,5,0,active
18.6052,24033,0,0.04,0,5,0,active
18.6113,24039,0,0.03,0,5,0,active
18.6173,24045,0,0.03,0,5,0,active
18.6233,24051,0,0.03,0,5,0,active
18.6292,24057,0,0.02,0,5,0,active
18.6356,24063,0,0.02,0,5,0,active
18.6415,24069,0,0.02,0,5,0,active
18.6472,24075,0,0.02,0,5,0,active
18.6533,24081,0,0.02,0,5,0,active
18.6592,24087,0,0.01,0,5,0,active
18.6653,24093,0,0.01,0,5,0,active
18.6713,24099,0,0.01,0,5,0,active
18.6773,24105,0,0.01,0,5,0,active
18.6834,24111,0,0.01,0,5,0,active
18.6896,24117,0,0.01,0,5,0,active
18.6952,24123,0,0.01,0,5,0,active
18.7081,24129,0,0.01,0,5,0,active
18.7221,24135,0,0.01,0,5,0,active
18.7224,24141,0,0.01,0,5,0,active
18.7225,24147,0,0.0,0,5,0,active
18.7257,24153,0,0.0,0,5,0,active
18.7328,24159,0,0.0,0,5,0,active
18.7376,24165,0,0.0,0,5,0,active
18.7433,24171,0,0.0,0,5,0,active
18.7493,24177,0,0.0,0,5,0,active
18.7552,24183,0,0.0,0,5,0,active
18.7612,24189,0,0.0,0,5,0,active
18.7673,24195,0,0.0,0,5,0,active
18.7737,24201,0,0.0,0,5,0,active
18.7795,24207,0,0.0,0,5,0,active
18.7858,24213,0,0.0,0,5,0,active
18.7914,24219,0,0.0,0,5,0,active
18.8048,24225,0,0.0,0,5,0,active
18.8052,24231,0,0.0,0,5,0,active
18.8168,24237,0,0.0,0,5,0,active
18.8194,24243,0,0.0,0,5,0,active
18.8216,24249,0,0.0,0,5,0,active
18.8273,24255,0,0.0,0,5,0,active
18.8332,24261,0,0.0,0,5,0,active
18.8393,24267,0,0.0,0,5,0,active
18.8453,24273,0,0.0,0,5,0,active
18.8514,24279,0,0.0,0,5,0,active
18.8624,24285,0,0.0,0,5,0,active
18.8704,24291,0,0.0,0,5,0,active
18.876,24297,0,0.0,0,5,0,active
18.8763,24303,0,0.0,0,5,0,active
18.8872,24309,0,0.0,0,5,0,active
18.8878,24315,0,0.0,0,5,0,active
18.8934,24321,0,0.0,0,5,0,active
18.8992,24327,0,0.0,0,5,0,active
18.9052,24333,0,0.0,0,5,0,active
18.9112,24339,0,0.0,0,5,0,active
18.9174,24345,0,0.0,0,5,0,active
18.9235,24351,0,0.0,0,5,0,active
18.9292,24357,0,0.0,0,5,0,active
18.9352,24363,0,0.0,0,5,0,active
18.9412,24369,0,0.0,0,5,0,active
18.9472,24375,0,0.0,0,5,0,active
18.9532,24381,0,0.0,0,5,0,active
18.9594,24387,0,0.0,0,5,0,active
18.9653,24393,0,0.0,0,5,0,active
18.9712,24399,0,0.0,0,5,0,active
18.9773,24405,0,0.0,0,5,0,active
18.9832,24411,0,0.0,0,5,0,active
18.9892,24417,0,0.0,0,5,0,active
18.9952,24423,0,0.0,0,5,0,active
19.0013,24429,0,0.0,0,5,0,active
19.0072,24435,0,0.0,0,5,0,active
19.0132,24441,0,0.0,0,5,0,active
19.0224,24447,0,0.0,0,5,0,active
19.0372,24453,0,0.0,0,5,0,active
19.0383,24459,0,0.0,0,5,0,active
19.0389,24465,0,0.0,0,5,0,active
19.0459,24471,0,0.0,0,5,0,active
19.0493,24477,0,0.0,0,5,0,active
19.0552,24483,0,0.0,0,5,0,active
19.0612,24489,0,0.0,0,5,0,active
19.0672,24495,0,0.0,0,5,0,active
19.0735,24501,0,0.0,0,5,0,active
19.0793,24507,0,0.0,0,5,0,active
19.0855,24513,0,0.0,0,5,0,active
19.0914,24519,0,0.0,0,5,0,active
19.0973,24525,0,0.0,0,5,0,active
19.1032,24531,0,0.0,0,5,0,active
19.1097,24537,0,0.0,0,5,0,active
19.1152,24543,0,0.0,0,5,0,active
19.1212,24549,0,0.0,0,5,0,active
19.1327,24555,0,0.0,0,5,0,active
19.1332,24561,0,0.0,0,5,0,active
19.1447,24567,0,0.0,0,5,0,active
19.1461,24573,0,0.0,0,5,0,active
19.1533,24579,0,0.0,0,5,0,active
19.1573,24585,0,0.0,0,5,0,active
19.1634,24591,0,0.0,0,5,0,active
19.1809,24597,0,0.0,0,5,0,active
19.1921,24603,0,0.0,0,5,0,active
19.1924,24609,0,0.0,0,5,0,active
19.1928,24615,0,0.0,0,5,0,active
19.1935,24621,0,0.0,0,5,0,active
19.2,24627,1,0.1,0,5,0,active
19.2054,24633,0,0.09,0,5,0,active
19.2114,24639,0,0.08,0,5,0,active
19.2173,24645,0,0.07,0,5,0,active
19.2232,24651,0,0.07,0,5,0,active
19.2293,24657,0,0.06,0,5,0,active
19.2355,24663,0,0.05,0,5,0,active
19.2413,24669,0,0.05,0,5,0,active
19.2474,24675,0,0.04,0,5,0,active
19.2532,24681,0,0.04,0,5,0,active
19.2592,24687,0,0.03,0,5,0,active
19.2653,24693,0,0.03,0,5,0,active
19.2713,24699,0,0.03,0,5,0,active
19.2772,24705,0,0.03,0,5,0,active
19.2832,24711,0,0.02,0,5,0,active
19.2893,24717,0,0.02,0,5,0,active
19.2955,24723,0,0.02,0,5,0,active
19.3012,24729,0,0.02,0,5,0,active
19.3072,24735,0,0.02,0,5,0,active
19.3136,24741,0,0.01,0,5,0,active
19.3193,24747,0,0.01,0,5,0,active
19.3338,24753,0,0.01,0,5,0,active
19.3428,24759,0,0.01,0,5,0,active
19.3479,24765,0,0.01,0,5,0,active
19.3486,24771,0,0.01,0,5,0,active
19.3494,24777,0,0.01,0,5,0,active
19.3572,24783,0,0.01,0,5,0,active
19.3613,24789,0,0.01,0,5,0,active
19.3673,24795,0,0.01,0,5,0,active
19.3732,24801,0,0.0,0,5,0,active
19.3793,24807,0,0.0,0,5,0,active
19.3852,24813,0,0.0,0,5,0,active
19.3916,24819,0,0.0,0,5,0,active
19.3973,24825,0,0.0,0,5,0,active
19.4032,24831,0,0.0,0,5,0,active
19.4094,24837,0,0.0,0,5,0,active
19.4153,24843,0,0.0,0,5,0,active
19.4212,24849,0,0.0,0,5,0,active
19.4272,24855,0,0.0,0,5,0,active
19.4333,24861,0,0.0,0,5,0,active
19.4396,24867,0,0.0,0,5,0,active
19.4452,24873,0,0.0,0,5,0,active
19.4587,24879,0,0.0,0,5,0,active
19.4592,24885,0,0.0,0,5,0,active
19.4896,24891,0,0.0,0,5,0,active
19.4904,24897,0,0.0,0,5,0,active
19.4906,24903,0,0.0,0,5,0,active
19.4909,24909,0,0.0,0,5,0,active
19.4911,24915,0,0.0,0,5,0,active
19.4932,24921,0,0.0,0,5,0,active
19.5003,24927,0,0.0,0,5,0,active
19.5052,24933,0,0.0,0,5,0,active
19.5112,24939,0,0.0,0,5,0,active
19.5173,24945,0,0.0,0,5,0,active
19.5233,24951,0,0.0,0,5,0,active
19.5294,24957,0,0.0,0,5,0,active
19.5353,24963,0,0.0,0,5,0,active
19.5413,24969,0,0.0,0,5,0,active
19.5472,24975,0,0.0,0,5,0,active
19.5533,24981,0,0.0,0,5,0,active
19.5593,24987,0,0.0,0,5,0,active
19.5652,24993,0,0.0,0,5,0,active
19.5712,24999,0,0.0,0,5,0,active
19.5774,25005,0,0.0,0,5,0,active
19.5832,25011,0,0.0,0,5,0,active
19.5893,25017,0,0.0,0,5,0,active
19.5952,25023,0,0.0,0,5,0,active
19.6013,25029,10,1.0,0,5,0,active
19.6072,25035,0,0.9,0,5,0,active
19.6133,25041,0,0.81,0,5,0,active
19.6297,25047,0,0.73,0,5,0,active
19.6384,25053,0,0.66,0,5,0,active
19.6392,25059,0,0.59,0,5,0,active
19.6394,25065,0,0.53,0,5,0,active
19.6468,25071,0,0.48,0,5,0,active
19.6498,25077,0,0.43,0,5,0,active
19.6552,25083,0,0.39,0,5,0,active
19.6615,25089,0,0.35,0,5,0,active
19.6673,25095,0,0.31,0,5,0,active
19.6732,25101,0,0.28,0,5,0,active
19.6792,25107,0,0.25,0,5,0,active
19.6853,25113,0,0.23,0,5,0,active
19.6913,25119,0,0.21,0,5,0,active
19.6973,25125,0,0.19,0,5,0,active
19.7032,25131,0,0.17,0,5,0,active
19.7092,25137,0,0.15,0,5,0,active
19.7152,25143,0,0.14,0,5,0,active
19.7214,25149,0,0.12,0,5,0,active
19.7272,25155,0,0.11,0,5,0,active
19.7332,25161,0,0.1,0,5,0,active
19.7392,25167,0,0.09,0,5,0,active
19.7452,25173,0,0.08,0,5,0,active
19.7512,25179,0,0.07,0,5,0,active
19.7577,25185,0,0.06,0,5,0,active
19.7633,25191,0,0.06,0,5,0,active
19.7784,25197,0,0.05,0,5,0,active
19.7794,25203,0,0.05,0,5,0,active
19.7909,25209,0,0.04,0,5,0,active
19.7912,25215,0,0.04,0,5,0,active
19.8052,25221,3,0.33,0,5,0,active
19.8066,25227,0,0.3,0,5,0,active
19.8085,25233,0,0.27,0,5,0,active
19.812,25239,0,0.24,0,5,0,active
19.8175,25245,0,0.22,0,5,0,active
19.8232,25251,0,0.2,0,5,0,active
19.8293,25257,0,0.18,0,5,0,active
19.8353,25263,0,0.16,0,5,0,active
19.8414,25269,0,0.14,0,5,0,active
19.8474,25275,31,3.23,0,,,
19.8535,25281,0,2.91,0,,,
19.8592,25287,0,2.62,0,,,
19.8652,25293,0,2.35,0,,,
19.8712,25299,0,2.12,0,,,
19.8773,25305,0,1.91,0,,,
19.8832,25311,0,1.72,0,,,
19.8892,25317,0,1.54,0,,,
19.8954,25323,0,1.39,0,,,
19.9014,25329,0,1.25,0,,,
19.9073,25335,0,1.13,0,,,
19.9175,25341,0,1.01,0,,,
19.9301,25347,0,0.91,0,,,
19.9316,25353,0,0.82,0,,,
19.9318,25359,0,0.74,0,,,
19.939,25365,0,0.66,0,,,
19.9435,25371,0,0.6,0,,,
19.9495,25377,0,0.54,0,,,
19.9555,25383,0,0.48,0,,,
19.9612,25389,0,0.44,0,,,
19.9672,25395,0,0.39,0,,,
19.9732,25401,0,0.35,0,,,
19.9795,25407,0,0.32,0,,,
19.9852,25413,0,0.29,0,,,
19.9912,25419,0,0.26,0,,,
19.9974,25425,0,0.23,0,,,
20.0031,25431,0,0.21,0,,,
20.0092,25437,0,0.19,0,,,
20.0155,25443,0,0.17,0,,,
20.0214,25449,0,0.15,0,,,
20.0272,25455,0,0.14,0,,,
20.0334,25461,0,0.12,0,,,
20.0628,25467,0,0.11,0,,,
20.0638,25473,0,0.1,0,,,
20.065,25479,0,0.09,0,,,
20.0662,25485,0,0.08,0,,,
20.0667,25491,0,0.07,0,,,
20.0707,25497,0,0.07,0,,,
20.0752,25503,0,0.06,0,,,
20.0814,25509,0,0.05,0,,,
20.0874,25515,0,0.05,0,,,
20.0932,25521,0,0.04,0,,,
20.0993,25527,0,0.04,0,,,
20.1052,25533,0,0.03,0,,,
20.1112,25539,0,0.03,0,,,
20.1174,25545,0,0.03,0,,,
20.1231,25551,0,0.03,0,,,
20.1332,25557,0,0.02,0,,,
20.146,25563,0,0.02,0,,,
20.1473,25569,2,0.22,0,,,
20.1487,25575,0,0.2,0,,,
20.1545,25581,0,0.18,0,,,
20.1595,25587,0,0.16,0,,,
20.1654,25593,10,1.14,0,,,
20.1712,25599,0,1.03,0,,,
20.1773,25605,14,2.33,0,,,
20.1832,25611,0,2.09,0,,,
20.1893,25617,0,1.88,0,,,
20.1953,25623,0,1.7,0,,,
20.2091,25629,0,1.53,0,,,
20.2237,25635,0,1.37,0,,,
20.2245,25641,0,1.24,0,,,
20.2251,25647,0,1.11,0,,,
20.2253,25653,0,1.0,0,,,
20.2327,25659,0,0.9,0,,,
20.2373,25665,0,0.81,0,,,
20.2434,25671,0,0.73,0,,,
20.2493,25677,0,0.66,0,,,
20.2553,25683,0,0.59,0,,,
20.2613,25689,0,0.53,0,,,
20.2671,25695,0,0.48,0,,,
20.2732,25701,0,0.43,0,,,
20.2793,25707,0,0.39,0,,,
20.2856,25713,0,0.35,0,,,
20.2914,25719,0,0.31,0,,,
20.2973,25725,0,0.28,0,,,
20.3033,25731,0,0.25,0,,,
20.3091,25737,0,0.23,0,,,
20.3152,25743,0,0.21,0,,,
20.3213,25749,0,0.19,0,,,
20.3272,25755,0,0.17,0,,,
20.3331,25761,0,0.15,0,,,
20.3393,25767,0,0.14,0,,,
20.3489,25773,0,0.12,0,,,
20.3565,25779,0,0.11,0,,,
20.3644,25785,0,0.1,0,,,
20.3648,25791,0,0.09,0,,,
20.3718,25797,0,0.08,0,,,
20.3753,25803,0,0.07,0,,,
20.3814,25809,0,0.06,0,,,
20.3875,25815,0,0.06,0,,,
20.3933,25821,0,0.05,0,,,
20.3994,25827,0,0.05,0,,,
20.4054,25833,0,0.04,0,,,
20.4112,25839,0,0.04,0,,,
20.4172,25845,0,0.03,0,,,
20.4232,25851,0,0.03,0,,,
20.4293,25857,0,0.03,0,,,
20.4355,25863,0,0.03,0,,,
20.4412,25869,0,0.02,0,,,
20.4473,25875,0,0.02,0,,,
20.4531,25881,0,0.02,0,,,
20.4592,25887,0,0.02,0,,,
20.4733,25893,0,0.01,0,,,
20.4735,25899,0,0.01,0,,,
20.486,25905,0,0.01,0,,,
20.5017,25911,0,0.01,0,,,
20.509,25917,0,0.01,0,,,
20.51,25923,12,1.21,0,,,
20.5103,25929,0,1.09,0,,,
20.5104,25935,0,0.98,0,,,
20.5133,25941,0,0.88,0,,,
20.5205,25947,14,2.19,0,,,
20.5253,25953,0,1.97,0,,,
20.5313,25959,0,1.78,0,,,
20.5373,25965,0,1.6,0,,,
20.5432,25971,3,1.74,0,,,
20.5492,25977,0,1.56,0,,,
20.5552,25983,0,1.41,0,,,
20.5613,25989,0,1.27,0,,,
20.5676,25995,15,2.64,0,,,
20.5736,26001,0,2.38,0,,,
20.5794,26007,0,2.14,0,,,
20.5854,26013,0,1.93,0,,,
20.5915,26019,0,1.73,0,,,
20.5972,26025,0,1.56,0,,,
20.6032,26031,0,1.4,0,,,
20.6093,26037,0,1.26,0,,,
20.6152,26043,0,1.14,0,,,
20.6212,26049,0,1.02,0,,,
20.6335,26055,0,0.92,0,,,
20.6507,26061,0,0.83,0,,,
20.651,26067,0,0.75,0,,,
20.6511,26073,0,0.67,0,,,
20.6513,26079,0,0.6,0,,,
20.6584,26085,0,0.54,0,,,
20.6633,26091,0,0.49,0,,,
20.6693,26097,0,0.44,0,,,
20.6751,26103,0,0.4,0,,,
20.6812,26109,0,0.36,0,,,
20.6876,26115,0,0.32,0,,,
20.6937,26121,0,0.29,0,,,
20.6992,26127,0,0.26,0,,,
20.7051,26133,0,0.23,0,,,
20.7113,26139,16,1.81,0,,,
20.7173,26145,0,1.63,0,,,
20.7233,26151,0,1.47,0,,,
20.7292,26157,0,1.32,0,,,
20.7352,26163,0,1.19,0,,,
20.7412,26169,0,1.07,0,,,
20.7472,26175,0,0.96,0,,,
20.7531,26181,0,0.87,0,,,
20.7592,26187,0,0.78,0,,,
20.7653,26193,0,0.7,0,,,
20.7712,26199,0,0.63,0,,,
20.7772,26205,0,0.57,0,,,
20.7834,26211,0,0.51,0,,,
20.7894,26217,0,0.46,0,,,
20.7952,26223,0,0.41,0,,,
20.8067,26229,0,0.37,0,,,
20.8171,26235,0,0.34,0,,,
20.8278,26241,0,0.3,0,,,
20.8282,26247,0,0.27,0,,,
20.8285,26253,0,0.24,0,,,
20.8419,26259,0,0.22,0,,,
20.8442,26265,0,0.2,0,,,
20.8444,26271,0,0.18,0,,,
20.851,26277,0,0.16,0,,,
20.8553,26283,0,0.14,0,,,
20.8612,26289,0,0.13,0,,,
20.8672,26295,0,0.12,0,,,
20.8732,26301,0,0.11,0,,,
20.8795,26307,13,1.39,0,,,
20.8854,26313,0,1.26,0,,,
20.8911,26319,0,1.13,0,,,
20.8972,26325,0,1.02,0,,,
20.9032,26331,0,0.92,0,,,
20.9093,26337,16,2.42,0,,,
20.9152,26343,0,2.18,0,,,
20.9211,26349,0,1.96,0,,,
20.9271,26355,0,1.77,0,,,
20.9333,26361,0,1.59,0,,,
20.9392,26367,0,1.43,0,,,
20.9452,26373,0,1.29,0,,,
20.9779,26379,0,1.16,0,,,
20.9832,26385,0,1.04,0,,,
20.9859,26391,0,0.94,0,,,
20.9862,26397,0,0.85,0,,,
20.9892,26403,0,0.76,0,,,
20.9908,26409,0,0.68,0,,,
20.9919,26415,0,0.62,0,,,
20.9937,26421,0,0.55,0,,,
20.9992,26427,0,0.5,0,,,
21.0052,26433,0,0.45,0,,,
21.0112,26439,0,0.4,0,,,
21.0172,26445,0,0.36,0,,,
21.0232,26451,0,0.33,0,,,
21.0292,26457,0,0.29,0,,,
21.0355,26463,0,0.27,0,,,
21.0412,26469,0,0.24,0,,,
21.0476,26475,10,1.21,0,,,
21.0532,26481,0,1.09,0,,,
21.0592,26487,0,0.98,0,,,
21.0652,26493,0,0.89,0,,,
21.0713,26499,0,0.8,0,,,
21.0774,26505,0,0.72,0,,,
21.0833,26511,0,0.65,0,,,
21.0892,26517,0,0.58,0,,,
21.0952,26523,0,0.52,0,,,
21.1163,26529,0,0.47,0,,,
21.1245,26535,0,0.42,0,,,
21.1248,26541,0,0.38,0,,,
21.125,26547,0,0.34,0,,,
21.1252,26553,0,0.31,0,,,
21.1328,26559,0,0.28,0,,,
21.1373,26565,0,0.25,0,,,
21.1431,26571,0,0.23,0,,,
21.1491,26577,0,0.2,0,,,
21.1553,26583,0,0.18,0,,,
21.1612,26589,0,0.16,0,,,
21.1673,26595,0,0.15,0,,,
21.1731,26601,0,0.13,0,,,
21.1854,26607,0,0.12,0,,,
21.1857,26613,0,0.11,0,,,
21.2001,26619,0,0.1,0,6,0,active
21.2015,26625,0,0.09,0,6,0,active
21.2044,26631,0,0.08,0,6,0,active
21.211,26637,0,0.07,0,6,0,active
21.2152,26643,0,0.06,0,6,0,active
21.2211,26649,0,0.06,0,6,0,active
21.2274,26655,0,0.05,0,6,0,active
21.2332,26661,8,0.85,0,6,0,active
21.2391,26667,0,0.76,0,6,0,active
21.2452,26673,0,0.69,0,6,0,active
21.2512,26679,0,0.62,0,6,0,active
21.2573,26685,0,0.56,0,6,0,active
21.2877,26691,0,0.5,0,6,0,active
21.2882,26697,0,0.45,0,6,0,active
21.2884,26703,0,0.4,0,6,0,active
21.2889,26709,0,0.36,0,6,0,active
21.2891,26715,0,0.33,0,6,0,active
21.2954,26721,0,0.3,0,6,0,active
21.2992,26727,0,0.27,0,6,0,active
21.3051,26733,0,0.24,0,6,0,active
21.3113,26739,0,0.22,0,6,0,active
21.3173,26745,0,0.19,0,6,0,active
21.3232,26751,0,0.17,0,6,0,active
21.3294,26757,0,0.16,0,6,0,active
21.3352,26763,0,0.14,0,6,0,active
21.3415,26769,0,0.13,0,6,0,active
21.3472,26775,0,0.11,0,6,0,active
21.3533,26781,0,0.1,0,6,0,active
21.3592,26787,0,0.09,0,6,0,active
21.3652,26793,0,0.08,0,6,0,active
21.3713,26799,0,0.08,0,6,0,active
21.3773,26805,0,0.07,0,6,0,active
21.3834,26811,0,0.06,0,6,0,active
21.3892,26817,0,0.05,0,6,0,active
21.3952,26823,0,0.05,0,6,0,active
21.4011,26829,0,0.04,0,6,0,active
21.408,26835,0,0.04,0,6,0,active
21.4191,26841,0,0.04,0,6,0,active
21.428,26847,0,0.03,0,6,0,active
21.4298,26853,0,0.03,0,6,0,active
21.4316,26859,0,0.03,0,6,0,active
21.438,26865,0,0.02,0,6,0,active
21.4431,26871,0,0.02,0,6,0,active
21.4492,26877,0,0.02,0,6,0,active
21.4552,26883,0,0.02,0,6,0,active
21.4613,26889,0,0.02,0,6,0,active
21.4675,26895,0,0.01,0,6,0,active
21.4734,26901,0,0.01,0,6,0,active
21.4793,26907,0,0.01,0,6,0,active
21.4851,26913,0,0.01,0,6,0,active
21.4911,26919,0,0.01,0,6,0,active
21.4973,26925,0,0.01,0,6,0,active
21.5033,26931,0,0.01,0,6,0,active
21.5092,26937,0,0.01,0,6,0,active
21.5151,26943,0,0.01,0,6,0,active
21.5212,26949,0,0.01,0,6,0,active
21.5271,26955,0,0.0,0,6,0,active
21.5371,26961,0,0.0,0,6,0,active
21.5515,26967,0,0.0,0,6,0,active
21.5554,26973,0,0.0,0,6,0,active
21.5576,26979,0,0.0,0,6,0,active
21.5589,26985,0,0.0,0,6,0,active
21.5726,26991,0,0.0,0,6,0,active
21.5843,26997,0,0.0,0,6,0,active
21.5851,27003,0,0.0,0,6,0,active
21.586,27009,0,0.0,0,6,0,active
21.5873,27015,0,0.0,0,6,0,active
21.5944,27021,0,0.0,0,6,0,active
21.5993,27027,0,0.0,0,6,0,active
21.6052,27033,0,0.0,0,6,0,active
21.6113,27039,0,0.0,0,6,0,active
21.6173,27045,0,0.0,0,6,0,active
21.6234,27051,0,0.0,0,6,0,active
21.6293,27057,38,3.8,0,6,0,active
21.6354,27063,0,3.42,0,6,0,active
21.6413,27069,0,3.08,0,6,0,active
21.6474,27075,0,2.77,0,6,0,active
21.6536,27081,0,2.49,0,6,0,active
21.6592,27087,0,2.24,0,6,0,active
21.6653,27093,0,2.02,0,6,0,active
21.6712,27099,0,1.82,0,6,0,active
21.6772,27105,0,1.64,0,6,0,active
21.6832,27111,0,1.47,0,6,0,active
21.6892,27117,0,1.33,0,6,0,active
21.6953,27123,0,1.19,0,6,0,active
21.7012,27129,0,1.07,0,6,0,active
21.7073,27135,0,0.97,0,6,0,active
21.7132,27141,0,0.87,0,6,0,active
21.7191,27147,0,0.78,0,6,0,active
21.7252,27153,0,0.7,0,6,0,active
21.7312,27159,0,0.63,0,6,0,active
21.7461,27165,0,0.57,0,6,0,active
21.7581,27171,0,0.51,0,6,0,active
21.7586,27177,0,0.46,0,6,0,active
21.7588,27183,0,0.42,0,6,0,active
21.7613,27189,0,0.37,0,6,0,active
21.7677,27195,0,0.34,0,6,0,active
21.7732,27201,0,0.3,0,6,0,active
21.7791,27207,9,1.17,0,6,0,active
21.7853,27213,0,1.06,0,6,0,active
21.7914,27219,0,0.95,0,6,0,active
21.7973,27225,0,0.86,0,6,0,active
21.8033,27231,0,0.77,0,6,0,active
21.8093,27237,0,0.69,0,6,0,active
21.8151,27243,0,0.62,0,6,0,active
21.8211,27249,5,1.06,0,6,0,active
21.8275,27255,0,0.95,0,6,0,active
21.8332,27261,0,0.86,0,6,0,active
21.8392,27267,0,0.77,0,6,0,active
21.8453,27273,0,0.7,0,6,0,active
21.8514,27279,0,0.63,0,6,0,active
21.8572,27285,0,0.56,0,6,0,active
21.8631,27291,0,0.51,0,6,0,active
21.8691,27297,0,0.46,0,6,0,active
21.8752,27303,0,0.41,0,6,0,active
21.8812,27309,0,0.37,0,6,0,active
21.8872,27315,0,0.33,0,6,0,active
21.8982,27321,0,0.3,0,6,0,active
21.8991,27327,0,0.27,0,6,0,active
21.9193,27333,0,0.24,0,6,0,active
21.9205,27339,0,0.22,0,6,0,active
21.9212,27345,0,0.2,0,6,0,active
21.9269,27351,0,0.18,0,6,0,active
21.9293,27357,0,0.16,0,6,0,active
21.9354,27363,0,0.14,0,6,0,active
21.9425,27369,0,0.13,0,6,0,active
21.9472,27375,0,0.12,0,6,0,active
21.9532,27381,0,0.1,0,6,0,active
21.9591,27387,9,0.99,0,6,0,active
21.9653,27393,0,0.89,0,6,0,active
21.9712,27399,0,0.81,0,6,0,active
21.9772,27405,0,0.72,0,6,0,active
21.9831,27411,0,0.65,0,6,0,active
21.9891,27417,0,0.59,0,6,0,active
21.9954,27423,0,0.53,0,6,0,active
22.0013,27429,0,0.48,0,6,0,active
22.0072,27435,0,0.43,0,6,0,active
22.0131,27441,0,0.39,0,6,0,active
22.0191,27447,0,0.35,0,6,0,active
22.0252,27453,0,0.31,0,6,0,active
22.0311,27459,0,0.28,0,6,0,active
22.0371,27465,0,0.25,0,6,0,active
22.0544,27471,0,0.23,0,6,0,active
22.0614,27477,0,0.2,0,6,0,active
22.0621,27483,0,0.18,0,6,0,active
22.0624,27489,0,0.17,0,6,0,active
22.0692,27495,0,0.15,0,6,0,active
22.0734,27501,0,0.13,0,6,0,active
22.0795,27507,0,0.12,0,6,0,active
22.0851,27513,0,0.11,0,6,0,active
22.0911,27519,0,0.1,0,6,0,active
22.0972,27525,0,0.09,0,6,0,active
22.1032,27531,0,0.08,0,6,0,active
22.1092,27537,0,0.07,0,6,0,active
22.1153,27543,0,0.06,0,6,0,active
22.1212,27549,0,0.06,0,6,0,active
22.1271,27555,0,0.05,0,6,0,active
22.1332,27561,0,0.05,0,6,0,active
22.1393,27567,7,0.74,0,6,0,active
22.1453,27573,0,0.67,0,6,0,active
22.1513,27579,15,2.1,0,6,0,active
22.1574,27585,0,1.89,0,6,0,active
22.1631,27591,0,1.7,0,6,0,active
22.1691,27597,0,1.53,0,6,0,active
22.1751,27603,0,1.38,0,6,0,active
22.1811,27609,0,1.24,0,6,0,active
22.1918,27615,0,1.12,0,6,0,active
22.212,27621,0,1.0,0,6,0,active
22.2123,27627,0,0.9,0,6,0,active
22.2129,27633,0,0.81,0,6,0,active
22.2131,27639,0,0.73,0,6,0,active
22.2195,27645,0,0.66,0,6,0,active
22.2232,27651,0,0.59,0,6,0,active
22.2292,27657,0,0.53,0,6,0,active
22.2354,27663,0,0.48,0,6,0,active
22.2414,27669,0,0.43,0,6,0,active
22.2474,27675,0,0.39,0,6,0,active
22.2531,27681,0,0.35,0,6,0,active
22.2592,27687,0,0.32,0,6,0,active
22.2731,27693,0,0.28,0,6,0,active
22.2732,27699,0,0.26,0,6,0,active
22.2875,27705,0,0.23,0,6,0,active
22.2891,27711,0,0.21,0,6,0,active
22.2904,27717,0,0.19,0,6,0,active
22.2981,27723,0,0.17,0,6,0,active
22.3022,27729,0,0.15,0,6,0,active
22.3072,27735,0,0.14,0,6,0,active
22.3133,27741,16,1.72,0,6,0,active
22.3191,27747,0,1.55,0,6,0,active
22.326,27753,0,1.39,0,6,0,active
22.3313,27759,0,1.26,0,6,0,active
22.3469,27765,0,1.13,0,6,0,active
22.3574,27771,0,1.02,0,6,0,active
22.3586,27777,0,0.92,0,6,0,active
22.3588,27783,0,0.82,0,6,0,active
22.3613,27789,0,0.74,0,6,0,active
22.3679,27795,0,0.67,0,6,0,active
22.3733,27801,0,0.6,0,6,0,active
22.3791,27807,0,0.54,0,6,0,active
22.3853,27813,0,0.49,0,6,0,active
22.3911,27819,0,0.44,0,6,0,active
22.3972,27825,0,0.39,0,6,0,active
22.4034,27831,0,0.35,0,6,0,active
22.4092,27837,0,0.32,0,6,0,active
22.4153,27843,0,0.29,0,6,0,active
22.4213,27849,0,0.26,0,6,0,active
22.4271,27855,0,0.23,0,6,0,active
22.4332,27861,0,0.21,0,6,0,active
22.4393,27867,0,0.19,0,6,0,active
22.4452,27873,0,0.17,0,6,0,active
22.4512,27879,0,0.15,0,6,0,active
22.4571,27885,0,0.14,0,6,0,active
22.4631,27891,0,0.12,0,6,0,active
22.4692,27897,0,0.11,0,6,0,active
22.4751,27903,0,0.1,0,6,0,active
22.4862,27909,26,2.69,0,6,0,active
22.5004,27915,17,4.12,0,6,0,active
22.5023,27921,16,5.31,0,6,0,active
22.5036,27927,21,6.88,0,6,0,active
22.5052,27933,0,6.19,0,6,0,active
22.5126,27939,0,5.57,0,6,0,active
22.5176,27945,0,5.01,0,6,0,active
22.5232,27951,16,6.11,0,6,0,active
22.5291,27957,0,5.5,0,6,0,active
22.5352,27963,0,4.95,0,6,0,active
22.5411,27969,0,4.46,0,6,0,active
22.5473,27975,0,4.01,0,6,0,active
22.5533,27981,42,7.81,0,6,0,active
22.5593,27987,112,18.23,0,6,0,active
22.5654,27993,117,28.11,0,6,0,active
22.5715,27999,106,35.9,0,6,0,active
22.5774,28005,94,41.71,0,6,0,active
22.5835,28011,78,45.34,0,6,0,active
22.5895,28017,64,47.2,0,6,0,active
22.597,28023,51,47.58,0,6,0,active
22.6013,28029,48,47.62,0,6,0,active
22.6073,28035,37,46.56,0,6,0,active
22.6134,28041,32,45.1,0,6,0,active
22.6278,28047,27,43.29,0,6,0,active
22.6381,28053,21,41.06,0,6,0,active
22.6383,28059,16,38.56,0,6,0,active
22.6384,28065,11,35.8,0,6,0,active
22.6533,28071,5,32.72,0,6,0,active
22.6557,28077,1,29.55,0,6,0,active
22.6559,28083,0,26.6,0,6,0,active
22.6626,28089,0,23.94,0,6,0,active
22.6673,28095,0,21.54,0,6,0,active
22.6734,28101,0,19.39,0,6,0,active
22.6793,28107,0,17.45,0,6,0,active
22.6853,28113,0,15.7,0,6,0,active
22.6912,28119,0,14.13,0,6,0,active
22.6973,28125,0,12.72,0,6,0,active
22.7035,28131,0,11.45,0,6,0,active
22.7094,28137,0,10.3,0,6,0,active
22.7151,28143,0,9.27,0,6,0,active
22.7211,28149,0,8.35,0,6,0,active
22.7271,28155,0,7.51,0,6,0,active
22.7331,28161,0,6.76,0,6,0,active
22.7392,28167,0,6.08,0,6,0,active
22.7452,28173,0,5.48,0,6,0,active
22.7512,28179,0,4.93,0,6,0,active
22.7573,28185,0,4.44,0,6,0,active
22.7633,28191,0,3.99,0,6,0,active
22.7743,28197,0,3.59,0,6,0,active
22.7883,28203,0,3.23,0,6,0,active
22.7916,28209,0,2.91,0,6,0,active
22.7918,28215,0,2.62,0,6,0,active
22.7935,28221,0,2.36,0,6,0,active
22.7998,28227,0,2.12,0,6,0,active
22.8052,28233,0,1.91,0,6,0,active
22.8112,28239,0,1.72,0,6,0,active
22.8173,28245,0,1.55,0,6,0,active
22.8236,28251,0,1.39,0,6,0,active
22.8291,28257,0,1.25,0,6,0,active
22.8352,28263,0,1.13,0,6,0,active
22.841,28269,0,1.01,0,6,0,active
22.8473,28275,0,0.91,0,6,0,active
22.8531,28281,0,0.82,0,6,0,active
22.8592,28287,0,0.74,0,6,0,active
22.8652,28293,0,0.67,0,6,0,active
22.8711,28299,0,0.6,0,6,0,active
22.8773,28305,11,1.64,0,6,0,active
22.8832,28311,0,1.48,0,6,0,active
22.8893,28317,0,1.33,0,6,0,active
22.8951,28323,0,1.19,0,6,0,active
22.9011,28329,0,1.08,0,6,0,active
22.9071,28335,0,0.97,0,6,0,active
22.9133,28341,17,2.57,0,6,0,active
22.9192,28347,20,4.31,0,6,0,active
22.9251,28353,20,5.88,0,6,0,active
22.9486,28359,14,6.69,0,6,0,active
22.9549,28365,7,6.72,0,6,0,active
22.9554,28371,0,6.05,0,6,0,active
22.9563,28377,0,5.45,0,6,0,active
22.9565,28383,0,4.9,0,6,0,active
22.9628,28389,0,4.41,0,6,0,active
22.9672,28395,0,3.97,0,6,0,active
22.9732,28401,0,3.57,0,6,0,active
22.9791,28407,0,3.22,0,6,0,active
22.9851,28413,0,2.89,0,6,0,active
22.9912,28419,27,5.31,0,6,0,active
23.0008,28425,27,7.47,0,6,0,active
23.0144,28431,31,9.83,0,6,0,active
23.0152,28437,51,13.94,0,6,0,active
23.0167,28443,82,20.75,0,6,0,active
23.0228,28449,107,29.38,0,6,0,active
23.0278,28455,172,43.64,0,6,0,active
23.0333,28461,131,52.37,0,6,0,active
23.0395,28467,140,61.14,0,6,0,active
23.0454,28473,92,64.22,0,6,0,active
23.0516,28479,129,70.7,0,6,0,active
23.0574,28485,130,76.63,0,6,0,active
23.0634,28491,215,90.47,0,6,0,active
23.0695,28497,318,113.22,0,6,0,active
23.0835,28503,310,132.9,0,6,0,active
23.0982,28509,411,160.71,0,6,0,active
23.0987,28515,458,190.44,0,6,0,active
23.0989,28521,417,213.09,0,6,0,active
23.1002,28527,407,232.48,0,6,0,active
23.1077,28533,435,252.74,0,6,0,active
23.1116,28539,397,267.16,0,6,0,active
23.1175,28545,387,279.15,0,6,0,active
23.1236,28551,427,293.93,0,6,0,active
23.1296,28557,440,308.54,0,6,0,active
23.1356,28563,481,325.78,0,6,0,active
23.1415,28569,443,337.51,0,6,0,active
23.1486,28575,825,386.26,0,6,0,active
23.1536,28581,1162,463.83,0,6,0,active
23.1595,28587,1201,537.55,0,6,0,active
23.1656,28593,1287,612.49,0,6,0,active
23.1717,28599,1218,673.04,0,6,0,active
23.1777,28605,1168,722.54,0,6,0,active
23.1837,28611,1103,760.58,0,6,0,active
23.1898,28617,1002,784.73,0,,,
23.1956,28623,1007,806.95,0,,,
23.2016,28629,1393,865.56,0,,,
23.2076,28635,1697,948.7,0,,,
23.2137,28641,1943,1048.13,0,,,
23.2204,28647,2096,1152.92,0,,,
23.226,28653,2175,1255.13,0,,,
23.2425,28659,2239,1353.51,0,,,
23.2513,28665,2372,1455.36,0,,,
23.2522,28671,2215,1531.33,0,,,
23.2525,28677,2219,1600.09,0,,,
23.2557,28683,2205,1660.58,0,,,
23.2631,28689,2082,1702.73,0,,,
23.2678,28695,2375,1769.95,0,,,
23.2737,28701,2334,1826.36,0,,,
23.2799,28707,2314,1875.12,0,,,
23.2863,28713,2368,1924.41,0,,,
23.2926,28719,2129,1944.87,0,,,
23.2982,28725,1907,1941.08,0,,,
23.3042,28731,1799,1926.87,0,,,
23.3125,28737,2367,1970.89,0,,,
23.3165,28743,2912,2065.0,0,,,
23.3221,28749,2711,2129.6,0,,,
23.3283,28755,2528,2169.44,0,,,
23.3342,28761,2361,2188.59,0,,,
23.3406,28767,2160,2185.73,0,,,
23.346,28773,2202,2187.36,0,,,
23.3525,28779,2250,2193.63,0,,,
23.3584,28785,2461,2220.36,0,,,
23.3644,28791,2509,2249.23,0,,,
23.3697,28797,2378,2262.1,0,,,
23.3803,28803,2154,2251.29,0,,,
23.3882,28809,2000,2226.16,0,7,1,active
23.415,28815,1930,2196.55,0,7,1,active
23.4161,28821,1776,2154.49,0,7,1,active
23.4171,28827,2484,2187.44,0,7,1,active
23.4182,28833,2666,2235.3,0,7,1,active
23.4253,28839,3085,2320.27,0,7,1,active
23.4266,28845,2837,2371.94,0,7,1,active
23.4276,28851,2559,2390.65,0,7,1,active
23.4306,28857,2733,2424.88,0,7,1,active
23.436,28863,2943,2476.69,0,7,1,active
23.4418,28869,3057,2534.73,0,7,1,active
23.4477,28875,3490,2630.25,0,7,1,active
23.4537,28881,3663,2733.53,0,7,1,active
23.4599,28887,3382,2798.37,0,7,1,active
23.4659,28893,3747,2893.24,0,7,1,active
23.4723,28899,3757,2979.61,1,7,1,active
23.4784,28905,3750,3056.65,1,7,1,active
23.4837,28911,3740,3124.99,1,7,1,active
23.4897,28917,3755,3187.99,1,7,1,active
23.4961,28923,3753,3244.49,1,7,1,active
23.5018,28929,3750,3295.04,1,7,1,active
23.509,28935,3750,3340.54,1,7,1,active
23.5138,28941,3753,3381.78,1,7,1,active
23.5197,28947,3753,3418.9,1,7,1,active
23.5257,28953,3751,3452.11,1,7,1,active
23.5318,28959,3750,3481.9,1,7,1,active
23.5524,28965,3748,3508.51,1,7,1,active
23.5611,28971,3751,3532.76,1,7,1,active
23.5615,28977,3562,3535.68,1,7,1,active
23.5617,28983,3405,3522.62,1,7,1,active
23.5619,28989,3235,3493.85,1,7,1,active
23.5692,28995,3071,3451.57,1,7,1,active
23.5737,29001,3751,3481.51,1,7,1,active
23.5796,29007,3746,3507.96,1,7,1,active
23.5858,29013,3783,3535.46,1,7,1,active
23.5917,29019,3755,3557.42,1,7,1,active
23.5977,29025,3734,3575.08,1,7,1,active
23.6038,29031,3755,3593.07,1,7,1,active
23.6102,29037,3752,3608.96,1,7,1,active
23.6158,29043,3751,3623.17,1,7,1,active
23.6219,29049,3760,3636.85,1,7,1,active
23.6278,29055,3763,3649.46,1,7,1,active
23.6336,29061,3759,3660.42,1,7,1,active
23.64,29067,3756,3669.98,1,7,1,active
23.6458,29073,3760,3678.98,1,7,1,active
23.6518,29079,3758,3686.88,1,7,1,active
23.6577,29085,3760,3694.19,1,7,1,active
23.6637,29091,3746,3699.37,1,7,1,active
23.6872,29097,3760,3705.44,1,7,1,active
23.6936,29103,3757,3710.59,1,7,1,active
23.6939,29109,3762,3715.73,1,7,1,active
23.6942,29115,3760,3720.16,1,7,1,active
23.6944,29121,3760,3724.14,1,7,1,active
23.7006,29127,3760,3727.73,1,7,1,active
23.7057,29133,3758,3730.76,1,7,1,active
23.7117,29139,3759,3733.58,1,7,1,active
23.7177,29145,3758,3736.02,1,7,1,active
23.7237,29151,3756,3738.02,1,7,1,active
23.7297,29157,3756,3739.82,1,7,1,active
23.7359,29163,3756,3741.44,1,7,1,active
23.7417,29169,3760,3743.29,1,7,1,active
23.7478,29175,3758,3744.76,1,7,1,active
23.7538,29181,3758,3746.09,1,7,1,active
23.7599,29187,3760,3747.48,1,7,1,active
23.7658,29193,3793,3752.03,1,7,1,active
23.7716,29199,3760,3752.83,1,7,1,active
23.7812,29205,3759,3753.44,1,7,1,active
23.787,29211,3759,3754.0,1,7,1,active
23.7951,29217,3757,3754.3,1,7,1,active
23.8037,29223,3760,3754.87,1,7,1,active
23.8062,29229,3757,3755.08,1,7,1,active
23.8078,29235,3759,3755.47,1,7,1,active
23.8145,29241,3758,3755.73,1,7,1,active
23.825,29247,3758,3755.95,1,7,1,active
23.8326,29253,3760,3756.36,1,7,1,active
23.8404,29259,3755,3756.22,1,7,1,active
23.841,29265,3758,3756.4,1,7,1,active
23.8438,29271,3754,3756.16,1,7,1,active
23.8508,29277,3758,3756.34,1,7,1,active
23.8557,29283,3751,3755.81,1,7,1,active
23.8618,29289,3759,3756.13,1,7,1,active
23.8678,29295,3759,3756.42,1,7,1,active
23.8738,29301,3754,3756.17,1,7,1,active
23.8796,29307,3741,3754.66,1,7,1,active
23.8856,29313,3759,3755.09,1,7,1,active
23.8919,29319,3759,3755.48,1,7,1,active
23.8982,29325,3760,3755.93,1,7,1,active
23.9037,29331,3761,3756.44,1,7,1,active
